time,ecg
0.0,-0.042183360848950746
0.004,-0.03005678497295166
0.008,-0.028711418257793952
0.012,-0.027213878753232203
0.016,0.005946618109279809
0.02,-0.020563836520347056
0.024,-0.0012601212651070347
0.028,0.03890939643714415
0.032,-0.009117063884802393
0.036000000000000004,0.01646194695631745
0.04,-0.01919602963198755
0.044,0.005128678718151174
0.048,-0.015251859330252623
0.052000000000000005,-0.006617035061581338
0.056,0.02110019647194155
0.06,-0.03697105858923562
0.064,0.023191778227253976
0.068,0.01650760698419406
0.07200000000000001,-0.010930551164263917
0.076,-0.03399574077988842
0.08,0.010077134570005112
0.084,0.0011544723808958515
0.088,0.018440309053738856
0.092,0.00652719793382147
0.096,0.0442563100611231
0.1,0.004344499987932108
0.10400000000000001,-0.00914286577807696
0.108,0.0191562898065366
0.112,0.013529946461212996
0.116,0.0402387283725194
0.12,0.03325136550310598
0.124,0.027409460562566913
0.128,0.05329792910599698
0.132,-0.01965031719137452
0.136,-0.007698320957556761
0.14,-0.008756760501808437
0.14400000000000002,0.010774044828330439
0.148,-0.015672711961533057
0.152,0.027974023849700404
0.156,0.004763724191458565
0.16,-0.02034143458718735
0.164,-0.002851914549621727
0.168,0.028597675775926496
0.17200000000000001,0.035060845099247215
0.176,0.06224696518201773
0.18,0.09128158405261017
0.184,0.034900924227577096
0.188,-0.0019787431475450402
0.192,-0.03719691330857009
0.196,0.02101465314217963
0.2,0.0001012081054860628
0.20400000000000001,0.016142938071295666
0.20800000000000002,0.009439868108671295
0.212,0.014563376153154096
0.216,0.04294653320740883
0.22,0.02632229756802681
0.224,0.024528465911217327
0.228,0.0008144658642523575
0.232,-0.021824409843121655
0.23600000000000002,0.0060947863642644914
0.24,0.023002878062196665
0.244,0.07463982783167523
0.248,0.03190582046416868
0.252,0.04655028420135389
0.256,0.007705389334353848
0.26,-0.003344362582674884
0.264,0.008242518127414583
0.268,0.012445173462975998
0.272,0.07711992017570649
0.276,0.0015813391580949444
0.28,0.04917508311672029
0.28400000000000003,0.011741565941202427
0.28800000000000003,0.055827897142992584
0.292,0.03552429365036963
0.296,0.02023778094386414
0.3,0.029298836999331883
0.304,0.020147408245440673
0.308,0.0460302828914248
0.312,0.01705642632572682
0.316,-0.003696735956981806
0.32,0.0015053390315162354
0.324,0.04442202072433515
0.328,0.0785318819071178
0.332,0.03734924450285661
0.336,0.029819650172352316
0.34,0.04757022686156016
0.34400000000000003,0.0810810588396875
0.34800000000000003,0.05445284855702548
0.352,0.03482009616423764
0.356,0.07424705111612805
0.36,0.06721255573935242
0.364,0.10531902018036424
0.368,0.07456419351677367
0.372,0.03802885252540868
0.376,0.03837315395690167
0.38,0.1259825516603649
0.384,0.14011934137791174
0.388,0.09700968510965717
0.392,0.09138313683786452
0.396,0.1415250619124196
0.4,0.08872563647747475
0.404,0.10476567701354433
0.40800000000000003,0.14521599918152175
0.41200000000000003,0.11540423743574431
0.41600000000000004,0.12505500431536043
0.42,0.1277322836482872
0.424,0.14570560743461483
0.428,0.1688508415932733
0.432,0.12635548246417477
0.436,0.13450147729838868
0.44,0.06849959950071596
0.444,0.11920597556394481
0.448,0.09162783608766854
0.452,0.06933616032833262
0.456,0.06969317758559432
0.46,0.083057765271784
0.464,0.11425819700808856
0.468,0.050574104794187336
0.47200000000000003,0.07240448193178774
0.47600000000000003,0.052785608387508696
0.48,0.05834758305836184
0.484,0.09378533110652496
0.488,0.07698131762312209
0.492,0.087399171530615
0.496,0.04587248416398732
0.5,0.03641015010298715
0.504,0.052653530822641265
0.508,0.061185626206341465
0.512,0.05180767883474042
0.516,0.017657531763326753
0.52,0.052489015873133524
0.524,0.061573076611285776
0.528,0.11671527907597061
0.532,0.09378414200491599
0.536,0.02314508532219166
0.54,0.04147143701947259
0.544,0.013302990507748413
0.548,0.024127999233282536
0.552,0.027846113290499054
0.556,0.03997959666884091
0.56,0.006933313438009146
0.5640000000000001,0.05785936299623244
0.5680000000000001,0.10635629853123646
0.5720000000000001,0.28124019314415893
0.5760000000000001,0.4218008324498613
0.58,0.6218218398283467
0.584,0.7979520776381545
0.588,0.9763986714425422
0.592,1.0557895595345166
0.596,1.1423058711207552
0.6,1.2624125141845879
0.604,1.1456185348654069
0.608,1.0521950697660374
0.612,0.9734818743109929
0.616,0.8197475559545457
0.62,0.5311617223806826
0.624,0.37020385997748806
0.628,0.2221715651861422
0.632,0.12207964600613443
0.636,-0.033712040780655095
0.64,-0.054237679240056895
0.644,-0.0338897582436039
0.648,-0.032384986503946826
0.652,-0.03548435843856751
0.656,-0.004557963362177758
0.66,-0.005813350806566815
0.664,0.046923128443102494
0.668,0.05714363759831691
0.672,0.07134426283480398
0.676,0.05544433649366838
0.68,0.09123098245661555
0.684,0.11418571979282693
0.6880000000000001,0.09411703908259009
0.6920000000000001,0.09560957881485381
0.6960000000000001,0.08982833593272563
0.7000000000000001,0.09835814210879262
0.704,0.09049039960086015
0.708,0.11906245294016608
0.712,0.10680898609348799
0.716,0.16488657007574528
0.72,0.16344919427796717
0.724,0.1456767812846646
0.728,0.12133932509119669
0.732,0.11246775405327261
0.736,0.17513518955924
0.74,0.1652201311698581
0.744,0.1842637800305802
0.748,0.13466202786789278
0.752,0.20287441729417913
0.756,0.19757482009435137
0.76,0.17307262695363704
0.764,0.20383446559680474
0.768,0.22924773106559101
0.772,0.2262090181503269
0.776,0.22474522721127507
0.78,0.24448484371607546
0.784,0.2557255220172242
0.788,0.27278009760256894
0.792,0.3076369112540395
0.796,0.21319794827035726
0.8,0.2855420854629691
0.804,0.3096142820481766
0.808,0.3180346852575312
0.812,0.3014214256759973
0.8160000000000001,0.27123044988591827
0.8200000000000001,0.33508364734648766
0.8240000000000001,0.3811757543303759
0.8280000000000001,0.30219795110519837
0.8320000000000001,0.35911127809309895
0.836,0.3304073785277288
0.84,0.3453118957917997
0.844,0.3279604649107384
0.848,0.34467329983723816
0.852,0.37860676562575174
0.856,0.35780973591966886
0.86,0.3907746251122908
0.864,0.38033902255945684
0.868,0.35666538855870994
0.872,0.3784572981538885
0.876,0.3391706336980938
0.88,0.3494485148716842
0.884,0.3212604622949801
0.888,0.3217983754025588
0.892,0.28875621988987316
0.896,0.3213871067682775
0.9,0.2651126975220696
0.904,0.31169093480780574
0.908,0.276739894765664
0.912,0.29504487056191464
0.916,0.27348292033911087
0.92,0.29693484125074654
0.924,0.26632578540281504
0.928,0.19749146369421966
0.932,0.2190165758670355
0.936,0.1802459390174684
0.9400000000000001,0.19345964182186806
0.9440000000000001,0.2412378186461442
0.9480000000000001,0.20875705029693195
0.9520000000000001,0.16007335691884245
0.9560000000000001,0.1420743027214424
0.96,0.16628684367480762
0.964,0.13341715838691842
0.968,0.13786060227208943
0.972,0.1487157843865394
0.976,0.16129931152106408
0.98,0.1473780661998688
0.984,0.07497642614927646
0.988,0.13243708210093394
0.992,0.11467548697870948
0.996,0.11648694228430906
1.0,0.1480315076685868
1.004,0.057856678965757
1.008,0.0888979039289688
1.012,0.10811105488849157
1.016,0.04861950463024826
1.02,0.12803398572034896
1.024,0.10357324805606707
1.028,0.11110918033281103
1.032,0.06659849207326225
1.036,0.09722255768216621
1.04,0.10767199865627645
1.044,0.0910380248703679
1.048,0.08760536234413407
1.052,0.08030461934638503
1.056,0.048768672300451094
1.06,0.07147536997335831
1.064,0.07626890760401801
1.068,0.08679517754676451
1.072,0.09454608614502924
1.076,0.040377045361236485
1.08,0.06895840220621219
1.084,0.11442243352786674
1.088,0.05626475901366924
1.092,0.04693826070242177
1.096,0.07010557741360374
1.1,0.09163132471963313
1.104,0.0763110046679661
1.108,0.10689310935315577
1.112,0.08788180028737388
1.116,0.08519462449383958
1.12,0.08359414364140849
1.124,0.133543058799485
1.1280000000000001,0.0679662002921992
1.1320000000000001,0.0158978824180787
1.1360000000000001,0.10388152023813575
1.1400000000000001,0.05803848360837585
1.1440000000000001,0.07792291426341928
1.1480000000000001,0.105874410717652
1.1520000000000001,0.0261812224368713
1.156,0.03300811498581926
1.16,0.03032494879875266
1.164,0.05670053612012996
1.168,0.08602993520499455
1.172,0.08196845956545747
1.176,0.07472629832134063
1.18,0.03964573223551172
1.184,0.024709261816944834
1.188,0.08382953515566277
1.192,0.06625091079460706
1.196,0.09045134878136322
1.2,0.10581693471644112
1.204,0.1015240567029357
1.208,0.11946786837705672
1.212,0.10416032413332973
1.216,0.11489783080835615
1.22,0.09541551681962943
1.224,0.12009317404952198
1.228,0.13319062562003312
1.232,0.14746012087357338
1.236,0.12034177978736943
1.24,0.1538512600695292
1.244,0.14415424731857013
1.248,0.14913921945565314
1.252,0.16827315785438923
1.256,0.09699410403171091
1.26,0.12047358921017887
1.264,0.12077056393435456
1.268,0.0954389387139157
1.272,0.12687070493731997
1.276,0.15655760517221723
1.28,0.1317889193613166
1.284,0.14431291176626873
1.288,0.15871019557932436
1.292,0.1516266651049994
1.296,0.10842298233517877
1.3,0.14364068188101292
1.304,0.11193943015368743
1.308,0.08095118193470782
1.312,0.07479140262438667
1.316,0.0457278831280361
1.32,0.06200040166384041
1.324,0.07721482311989282
1.328,0.10082197487832749
1.332,0.11391314542542469
1.336,0.03180789478698301
1.34,0.0799281192309681
1.344,0.048182756681168365
1.348,0.08256359515196243
1.352,0.05929758684584445
1.356,0.01376911591757149
1.36,0.08778907263726787
1.364,0.054666398182454584
1.368,0.053911802604890466
1.372,0.033137744115524434
1.3760000000000001,0.04064368048317242
1.3800000000000001,0.07135061729116197
1.3840000000000001,0.05665045306772585
1.3880000000000001,0.05829391508919473
1.3920000000000001,0.04033426217226981
1.3960000000000001,0.0549340853941826
1.4000000000000001,0.029710223156861226
1.4040000000000001,0.05076110854256391
1.408,0.1985706079296916
1.412,0.2843754714089918
1.416,0.47616408024450263
1.42,0.6349661342239624
1.424,0.79613247476906
1.428,0.9560201538201393
1.432,1.1067314091228526
1.436,1.1803619664793628
1.44,1.1540535805534264
1.444,1.1218378011625318
1.448,1.0470791170647815
1.452,0.8511195946379722
1.456,0.7074187006734795
1.46,0.5212976813330159
1.464,0.35940661632214327
1.468,0.1755269213200318
1.472,0.031230581628748262
1.476,-0.061443980965132226
1.48,-0.07183085625393987
1.484,-0.058308966501086086
1.488,-0.04392545625276248
1.492,0.027764008935955355
1.496,0.029895772867457798
1.5,0.005874324128529666
1.504,0.06106375159861151
1.508,0.05159942169864542
1.512,0.05522426562330369
1.516,0.06983173952164433
1.52,0.09003328812758174
1.524,0.07482504078245376
1.528,0.1106305254308924
1.532,0.05144335420463914
1.536,0.08120206414585497
1.54,0.15519818577968358
1.544,0.10534799672811267
1.548,0.1375471388928549
1.552,0.10140368417742769
1.556,0.116241398331205
1.56,0.11113223305224164
1.564,0.11946031544048832
1.568,0.1078533488623869
1.572,0.13717637801992397
1.576,0.10940670978085085
1.58,0.15980922064445674
1.584,0.18307274313385546
1.588,0.17026582228628329
1.592,0.15448788888990717
1.596,0.17863443006297727
1.6,0.1732898653675324
1.604,0.21827555810877647
1.608,0.15521552875205366
1.612,0.19392734899941844
1.616,0.15876875491984882
1.62,0.18525203079377228
1.624,0.2707452653062228
1.6280000000000001,0.26503982615152316
1.6320000000000001,0.2256333407968443
1.6360000000000001,0.2116583732815222
1.6400000000000001,0.18830489865716687
1.6440000000000001,0.261682700040081
1.6480000000000001,0.34034647827246456
1.6520000000000001,0.28994729299392435
1.6560000000000001,0.2686947798723195
1.6600000000000001,0.3052541011645563
1.6640000000000001,0.26494999400175945
1.668,0.2983654912724679
1.672,0.3045646766195169
1.676,0.30037633215775256
1.68,0.32990966187288834
1.684,0.32562128968055093
1.688,0.33193561797783083
1.692,0.2906033390873753
1.696,0.32695420162244443
1.7,0.34905858663767747
1.704,0.2871653779671194
1.708,0.28370190866166695
1.712,0.32819300528559614
1.716,0.2831264711282397
1.72,0.32337323457101524
1.724,0.27699276896636327
1.728,0.3157805607519607
1.732,0.26867021609638514
1.736,0.26224670037191883
1.74,0.2928117533314046
1.744,0.24221633173997728
1.748,0.21713322603810725
1.752,0.21375003317359104
1.756,0.225280807759724
1.76,0.17160911250074806
1.764,0.22340993487743824
1.768,0.18282843642958727
1.772,0.20898270504277408
1.776,0.10937875789663723
1.78,0.14653159182867528
1.784,0.12115978074303754
1.788,0.13210568532411804
1.792,0.1437503294675702
1.796,0.12300715507609965
1.8,0.11924951864829529
1.804,0.12000047216736036
1.808,0.11989004213957588
1.812,0.07586976933502383
1.816,0.11024015930857897
1.82,0.1088457565768377
1.824,0.10195493912923384
1.828,0.0987442815134748
1.832,0.08020333656661544
1.836,0.1168326673658908
1.84,0.06514601396217216
1.844,0.06132211345124283
1.848,0.04424738102332843
1.852,0.026775155079149213
1.856,0.01610958622601596
1.86,0.027782264921983282
1.864,0.051256240402064085
1.868,0.05674076808426664
1.872,0.040358122646358095
1.8760000000000001,0.015705915817664867
1.8800000000000001,0.06117954439143326
1.8840000000000001,0.06115640983703281
1.8880000000000001,0.034941708899430136
1.8920000000000001,0.014136358484304144
1.8960000000000001,0.04069577029818173
1.9000000000000001,0.036209926401020234
1.9040000000000001,-6.451505436434746e-05
1.9080000000000001,0.031273459797229945
1.9120000000000001,0.03156699800017957
1.9160000000000001,-0.00048540212854089604
1.92,0.031696011272788205
1.924,-0.004418407742986026
1.928,0.0625265027608763
1.932,0.05266523497690425
1.936,0.012417306661382476
1.94,0.033009733559246114
1.944,-0.031088258652018634
1.948,-0.002353177742680186
1.952,0.01178279328671205
1.956,-0.010173079405474354
1.96,0.03994776034694566
1.964,0.07756194886450027
1.968,-0.004025818065687907
1.972,-0.0025310423772805304
1.976,0.02234239444470952
1.98,0.06286829608280259
1.984,-0.0015950677907703922
1.988,0.033964449028406216
1.992,0.0675075750388201
1.996,-0.019821592885033476
2.0,-0.002735062045041911
2.004,0.02700073409979998
2.008,0.025504097488601073
2.012,0.05542367159429447
2.016,0.04315244645421104
2.02,0.0031445281559679197
2.024,0.07128565617665525
2.028,0.04735863225834047
2.032,0.09247973968356352
2.036,0.04879244444203713
2.04,0.06032967716859322
2.044,0.10137532759305513
2.048,0.11028882807728274
2.052,0.10037596936085294
2.056,0.04914527186021986
2.06,0.11384800515164402
2.064,0.08262662575148391
2.068,0.11343906089197792
2.072,0.06497273417494528
2.076,0.10840093931235403
2.08,0.08046577813505568
2.084,0.07085379792862408
2.088,0.11418514690271303
2.092,0.09009274034829567
2.096,0.06062629627383115
2.1,0.11158974896429956
2.104,0.06334265867600525
2.108,0.06622188734634488
2.112,0.05839464708251631
2.116,0.027520065335664617
2.12,0.054350778050132005
2.124,0.02922430036751706
2.128,0.024863354471875827
2.132,0.05746797694495824
2.136,-0.00895221320509004
2.14,-0.04118104160537568
2.144,0.0619911511266185
2.148,0.08060894075006542
2.152,-0.0025534135348752648
2.156,-0.044898135841229085
2.16,-9.115821277971836e-05
2.164,0.004933976714746212
2.168,0.0041045711229251115
2.172,-0.026890963767933707
2.176,0.012581626991158786
2.18,0.016393045149016447
2.184,-0.02887936734572114
2.188,0.02281290208152529
2.192,0.04705682041861286
2.196,-0.00796981612935346
2.2,-0.025299266399296777
2.204,-0.027443578431195284
2.208,-0.017569673564195643
2.212,-0.06958647538860813
2.216,0.02601019036699785
2.22,0.11450053365275162
2.224,0.31669317204438946
2.228,0.43537254046962937
2.232,0.6588290183205925
2.236,0.7671200768270094
2.24,0.9739470132095748
2.244,1.0958155048650111
2.248,1.1373591039519988
2.2520000000000002,1.1707411512631887
2.2560000000000002,1.145968311950119
2.2600000000000002,1.005999455609983
2.2640000000000002,0.8226431986469047
2.2680000000000002,0.6766341942342103
2.2720000000000002,0.4507137970126515
2.2760000000000002,0.2746541382142407
2.2800000000000002,0.12506053711058374
2.2840000000000003,-0.033632373886615836
2.2880000000000003,-0.11430836319789497
2.2920000000000003,-0.10879841215442494
2.2960000000000003,-0.1431327104639879
2.3000000000000003,-0.17382752019570571
2.3040000000000003,-0.05925132188000244
2.308,-0.04744828140711563
2.312,-0.056018870159967524
2.316,-0.055824225672639866
2.32,0.015686830125050184
2.324,0.017078270951294185
2.328,0.07094059238521731
2.332,0.018626858175144295
2.336,0.018843614363744356
2.34,0.013775611400249703
2.344,0.047294692983122784
2.348,0.04378949106071034
2.352,0.056170440124038025
2.356,0.013762071574415648
2.36,0.026058494496533986
2.364,0.03546962639849119
2.368,0.07019671186231038
2.372,0.08635765560838846
2.376,0.04113976914454336
2.38,0.05395488638083451
2.384,0.08474909266116963
2.388,0.07554037952174524
2.392,0.1057364103844993
2.396,0.031085100805444688
2.4,0.08034096608395719
2.404,0.09535019015004295
2.408,0.06316068558730463
2.412,0.09867248485881325
2.416,0.10652240930074458
2.42,0.13902527551281196
2.424,0.18661013615043312
2.428,0.15953843635768952
2.432,0.1418788533587953
2.436,0.17300706145987252
2.44,0.21519414502740947
2.444,0.17890683823623985
2.448,0.18674359925467043
2.452,0.22448690403307048
2.456,0.21050074128505838
2.46,0.2451963806741253
2.464,0.2411494562858358
2.468,0.26308445218538135
2.472,0.21825002094807744
2.476,0.24664118334087232
2.48,0.2516940439582204
2.484,0.23586012218237407
2.488,0.2278267267277386
2.492,0.27906015048747
2.496,0.25221998405608403
2.5,0.24158822167011668
2.504,0.2700744600865863
2.508,0.29731056111004667
2.512,0.20304053258637056
2.516,0.21767218169379954
2.52,0.23415920394334339
2.524,0.29516005794542954
2.528,0.2584983899085842
2.532,0.25787519858232444
2.536,0.20169409226537185
2.54,0.2010236542511838
2.544,0.23849576810015155
2.548,0.2186894595140941
2.552,0.21559686055331678
2.556,0.18635284022338866
2.56,0.19475715064062776
2.564,0.18828251409261654
2.568,0.19224055579710228
2.572,0.1764500774279833
2.576,0.1040727211572345
2.58,0.08456538409995651
2.584,0.16201709298154837
2.588,0.15510437976818492
2.592,0.08360213147310083
2.596,0.051385730131827116
2.6,0.0972281520732149
2.604,0.11514760898520991
2.608,0.12633724160380067
2.612,0.07925836591354544
2.616,0.047211996261420586
2.62,0.03255909647924914
2.624,0.05391041226066502
2.628,0.037355623668664205
2.632,0.006166553469607074
2.636,0.07470967726981603
2.64,0.0683191957613828
2.644,0.05265130008064258
2.648,-0.005743410262610039
2.652,0.027151530293333788
2.656,0.01547167985425834
2.66,0.012455800466215888
2.664,0.03485111795240707
2.668,0.014116340082311288
2.672,0.006756750115573468
2.676,-0.0006633779078186602
2.68,-0.004779604557992999
2.684,-0.054376274043159166
2.688,-0.011857498552277766
2.692,-0.036694004625124135
2.696,-0.058573428400309935
2.7,0.019730054061164883
2.704,0.02532156599588259
2.708,0.012739706057119164
2.712,-0.022948143653921782
2.716,0.001334864690573534
2.72,-0.0272453804395236
2.724,-0.017502760827569835
2.728,-0.052741063169470304
2.732,-0.023113323520608204
2.736,-0.03422497522803449
2.74,-0.06305526143435836
2.744,-0.0264735954214567
2.748,-0.029733869863115686
2.7520000000000002,0.009816083325867107
2.7560000000000002,-0.015242342121345127
2.7600000000000002,-0.03187057099882791
2.7640000000000002,-0.020469799508748696
2.7680000000000002,-0.02797954314351901
2.7720000000000002,-0.04140576284101779
2.7760000000000002,-0.06574834331599695
2.7800000000000002,-0.0369140460531086
2.7840000000000003,-0.04622149307892609
2.7880000000000003,-0.06112415961648997
2.7920000000000003,-0.024234121425145215
2.7960000000000003,-0.029480660619771226
2.8000000000000003,-0.07825809377477765
2.8040000000000003,-0.030942936253592606
2.8080000000000003,-0.005099507228296395
2.8120000000000003,-0.010430006731285555
2.816,-0.01321722369647263
2.82,-0.03183891178842603
2.824,-0.04773732815892252
2.828,-0.05520322005354432
2.832,-0.025641029565666065
2.836,-0.02577103577665007
2.84,0.004144270817278407
2.844,0.007051223724418368
2.848,-0.0236218229535162
2.852,-0.05568922401003153
2.856,-0.03144430651055033
2.86,-0.008495588771948729
2.864,-0.008893252454767575
2.868,-0.015557855920156799
2.872,0.0035611654277606613
2.876,-0.011710608864125269
2.88,-0.002948036230260246
2.884,0.032610739601340456
2.888,0.019014564542636385
2.892,0.034416835400722864
2.896,0.03896606148939061
2.9,0.014864920743025374
2.904,0.04185448240611127
2.908,0.09162686351732943
2.912,0.022554199713252242
2.916,-0.0016257196925980877
2.92,0.011128989869166987
2.924,0.06357404994778589
2.928,0.0597110713199385
2.932,0.04608843182513082
2.936,0.07332799080605346
2.94,-0.022894278301393983
2.944,0.05406998655117649
2.948,0.07504358282529465
2.952,-0.005556695075276511
2.956,0.004501730562689226
2.96,-0.0055511038444412564
2.964,-0.009629789904639436
2.968,-0.0035437925702090887
2.972,0.027722714143525572
2.976,0.03075089311072543
2.98,-0.022388591007426947
2.984,0.03537435452410361
2.988,-0.016971391341031816
2.992,0.01601552294581579
2.996,-0.03477111865768852
3.0,-0.025453078047087484
3.004,-0.015498492972471722
3.008,0.05137811382875859
3.012,-0.014857511984249661
3.016,-0.05675110587207799
3.02,-0.00967764198190418
3.024,-0.037590523300470774
3.028,-0.04314860728261423
3.032,-0.015355292444302327
3.036,-0.0398851217627623
3.04,-0.02964588078542703
3.044,-0.03508082128112404
3.048,-0.03811159154402151
3.052,-0.05529771530070829
3.056,-0.12565307166421025
3.06,-0.04726411054975885
3.064,-0.04182700590998108
3.068,0.030704833470486782
3.072,0.19038931164990508
3.076,0.3588785893781057
3.08,0.5298742168887544
3.084,0.7578758240004979
3.088,0.8683099104454595
3.092,1.018900887198833
3.096,1.0997800870146268
3.1,1.1487445182433
3.104,1.1293843241953643
3.108,1.0009327756289499
3.112,0.8918120923542946
3.116,0.6922024671973699
3.12,0.45205601220253644
3.124,0.26333701824588407
3.128,0.13951757580537566
3.132,-0.00706479526638054
3.136,-0.09779060731055571
3.14,-0.13936211978004068
3.144,-0.14102936023723706
3.148,-0.11418447080860114
3.152,-0.14859167176806315
3.156,-0.12465640144381104
3.16,-0.0920621839192768
3.164,-0.03236937362433861
3.168,0.003084293434474604
3.172,-0.03668113951848869
3.176,-0.08443107272463374
3.18,-0.05427482729068547
3.184,-0.023045887290776546
3.188,-0.01480101945062098
3.192,-0.014493231780909726
3.196,-0.001642538829378423
3.2,-0.0005433279530509365
3.204,0.04366852311566871
3.208,0.003178424105753277
3.212,-0.0033526453385774244
3.216,0.033541536962626246
3.22,-0.005202229615796541
3.224,0.05492098543622965
3.228,0.05221581822548874
3.232,0.045930111953756306
3.236,0.09451738173088053
3.24,0.05267964617347126
3.244,0.13349440936611467
3.248,0.08252456697985432
3.2520000000000002,0.057816948837447424
3.2560000000000002,0.09819936858520982
3.2600000000000002,0.08435993740807536
3.2640000000000002,0.10746880798466277
3.2680000000000002,0.1434393167237916
3.2720000000000002,0.14987443397182595
3.2760000000000002,0.12782103596043884
3.2800000000000002,0.18332936915359893
3.2840000000000003,0.20278842813385672
3.2880000000000003,0.2169588052042056
3.2920000000000003,0.19643413844475963
3.2960000000000003,0.22406637828781495
3.3000000000000003,0.1573283034029105
3.3040000000000003,0.2104074792378672
3.3080000000000003,0.2023806387838119
3.3120000000000003,0.22738506859295118
3.3160000000000003,0.2148069501174749
3.3200000000000003,0.23692785683542553
3.3240000000000003,0.29949005845705334
3.3280000000000003,0.2509816585153843
3.332,0.26276649324570606
3.336,0.24793400772357693
3.34,0.2640592148109013
3.344,0.26994185998778747
3.348,0.27992356288937487
3.352,0.2910757140186382
3.356,0.30040601246296583
3.36,0.271309007092285
3.364,0.2818511552268617
3.368,0.23321565891785068
3.372,0.24903472671744914
3.376,0.2681331242707057
3.38,0.26686971501510337
3.384,0.25046319578742593
3.388,0.25880509244320204
3.392,0.2349705566032143
3.396,0.24315168654750025
3.4,0.2182768670759668
3.404,0.1996788678370475
3.408,0.20629979473663015
3.412,0.10884824635885239
3.416,0.18057947775601244
3.42,0.07644768973905772
3.424,0.1211503565245868
3.428,0.16420797111192156
3.432,0.14869176516727145
3.436,0.09649291537315535
3.44,0.10456995221176449
3.444,0.15363014503519723
3.448,0.09658766294018331
3.452,0.14945724706069113
3.456,0.0831835432127475
3.46,0.09146890209261567
3.464,0.12005069588113328
3.468,0.07372072059215667
3.472,0.031683048676349065
3.476,0.045532002816521616
3.48,0.04717282235064691
3.484,0.014102660852231073
3.488,0.034466410524854496
3.492,0.010439282419429648
3.496,0.045466591876726026
3.5,0.024821366980801163
3.504,0.018822561940043253
3.508,0.017613744180207225
3.512,0.01565994026486745
3.516,0.020486301999657563
3.52,-0.0167758216345655
3.524,-0.014406816243954453
3.528,0.03502819379394619
3.532,-0.011760759397820293
3.536,-0.04064763589935769
3.54,0.01017984280423272
3.544,0.015163557571757483
3.548,-0.03791125119312743
3.552,-0.0018488673475220534
3.556,0.00787499430789445
3.56,0.0039293293927297485
3.564,0.01556808576922147
3.568,-0.03792215370181643
3.572,-0.0019047820051666282
3.576,-0.020155319327806006
3.58,-0.01910921236768536
3.584,0.020339932858727667
3.588,0.0333450194615805
3.592,0.03418647060989437
3.596,0.020079865065414104
3.6,-0.009726186069958228
3.604,0.007676861450453518
3.608,0.016015023029434264
3.612,-0.0069881942301219906
3.616,-0.008713957296632427
3.62,0.014551500221144592
3.624,-0.0015656166062045622
3.628,-0.02022641886806787
3.632,-0.019124950363170787
3.636,0.005205067107928292
3.64,-0.0045450955035551835
3.644,0.009926480825450485
3.648,0.016350295845127764
3.652,-0.01644221529886629
3.656,0.010074138364281122
3.66,0.006809242155312601
3.664,-0.027303096780135025
3.668,0.038044233423603926
3.672,-0.016888295034798384
3.676,-0.04710487666157663
3.68,-0.025169273989007458
3.684,-0.01769251767214998
3.688,0.008361918973188234
3.692,-0.005161310914176829
3.696,-0.006911647508286574
3.7,0.02508039151282481
3.704,0.026574249968166888
3.708,0.027028710485327866
3.712,0.026021574922835272
3.716,0.03318441987868414
3.72,-0.024550812070612018
3.724,0.029850856959892723
3.728,-0.012222176549275245
3.732,0.041946269413569576
3.736,0.0447737808126244
3.74,0.08283943358984719
3.744,0.09813573983857374
3.748,0.07714164277270427
3.7520000000000002,0.057916998954900864
3.7560000000000002,0.08521507961537002
3.7600000000000002,0.06970975942091912
3.7640000000000002,0.091833329044907
3.7680000000000002,0.11662619611497348
3.7720000000000002,0.07221588669873191
3.7760000000000002,0.10428590880828109
3.7800000000000002,0.10587924651137282
3.7840000000000003,0.06885451385649473
3.7880000000000003,0.11203311322353418
3.7920000000000003,0.0944250476161198
3.7960000000000003,0.07299083133254303
3.8000000000000003,0.05224721117536023
3.8040000000000003,0.0503519904404532
3.8080000000000003,0.05086346620210666
3.8120000000000003,0.06545904294691668
3.8160000000000003,0.020598085575866308
3.8200000000000003,0.05615858448696083
3.8240000000000003,0.015255800194169243
3.8280000000000003,0.034807110540054385
3.8320000000000003,0.0318454484988714
3.8360000000000003,0.08478219050458938
3.84,-0.007863000916332855
3.844,0.06674952874954493
3.848,0.029622036757479004
3.852,0.027603132259884196
3.856,0.01695525528285417
3.86,0.029978999593451336
3.864,0.020144502171581702
3.868,0.0577998966291559
3.872,0.002816332165742997
3.876,0.04035865105325109
3.88,0.0018089236282239837
3.884,0.022369709636936477
3.888,-0.005008554657341686
3.892,0.025353907693356575
3.896,0.04498801083000199
3.9,0.006008128642257849
3.904,-0.001493695229064092
3.908,-0.03591458298330171
3.912,-0.018512059581983382
3.916,-0.026160580139852927
3.92,0.06367748270467834
3.924,0.206688875267442
3.928,0.37467464097450354
3.932,0.5671746867401761
3.936,0.6455633727523734
3.94,0.8552860035309457
3.944,0.9587368569969075
3.948,1.0354028699100406
3.952,1.0822811708656812
3.956,1.0547300483300597
3.96,0.9903796042880199
3.964,0.863758688126098
3.968,0.6822799941678447
3.972,0.49857002439249903
3.976,0.37792380855117935
3.98,0.20348148560841983
3.984,0.07396511439748185
3.988,-0.0031144040759703245
3.992,-0.04225545016682224
3.996,-0.078227991935051
4.0,-0.08754585961527149
4.0040000000000004,-0.014917180238851555
4.008,0.016458847510651502
4.0120000000000005,0.005605471939804322
4.016,0.03416954164216955
4.0200000000000005,0.06018015560151499
4.024,0.07235763537027448
4.0280000000000005,0.06356031268339027
4.032,0.060655759689675036
4.0360000000000005,0.060217525279933036
4.04,0.02893215203962119
4.0440000000000005,0.0830520336463819
4.048,0.0331002464109924
4.0520000000000005,0.04396829903611356
4.056,0.09841741730584008
4.0600000000000005,0.09701617224081194
4.064,0.12369046437720474
4.0680000000000005,0.0826424530084303
4.072,0.05900784372119567
4.0760000000000005,0.08538366147671166
4.08,0.10573834420910486
4.0840000000000005,0.11727825711223866
4.088,0.14819190224458603
4.0920000000000005,0.1107969547655468
4.096,0.13377481588251544
4.1,0.11356472830690197
4.104,0.16309885450400802
4.108,0.15782220164109687
4.112,0.14022904046377338
4.116,0.15934974667135085
4.12,0.17492922855499063
4.124,0.18715911564142765
4.128,0.244738090519701
4.132,0.19966335008769806
4.136,0.2025244652779613
4.14,0.170471902315924
4.144,0.21468997939535395
4.148,0.23651662466316714
4.152,0.22686498327353877
4.156,0.2840350909801892
4.16,0.25837230902875535
4.164,0.3072946461112667
4.168,0.28086253141563655
4.172,0.27910047460464965
4.176,0.27911675479347253
4.18,0.291887402537195
4.184,0.3445852686099206
4.188,0.24489804671782212
4.192,0.2485589734710634
4.196,0.2848914271723665
4.2,0.3058686374462296
4.204,0.3290603062743522
4.208,0.32131671683616236
4.212,0.2919612768979823
4.216,0.3232755202844142
4.22,0.3269691208607267
4.224,0.30854965235743803
4.228,0.3222096322525567
4.232,0.293660424592131
4.236,0.26579960359300253
4.24,0.2976196697836554
4.244,0.2827816748257954
4.248,0.271558804581471
4.252,0.2945878141774193
4.256,0.18726053395561154
4.26,0.2114539508587775
4.264,0.21534634320135718
4.268,0.2259997775308269
4.272,0.21377061242155435
4.276,0.17230283095027515
4.28,0.18306486422828774
4.284,0.18389993237874175
4.288,0.25676198532103833
4.292,0.22550761538021763
4.296,0.1603264021454728
4.3,0.15975214796823897
4.304,0.13854402076170766
4.308,0.11035550327754225
4.312,0.14130938351623515
4.316,0.11061299422243404
4.32,0.13294931304406032
4.324,0.09488637587384702
4.328,0.10809553808898519
4.332,0.11856396392999494
4.336,0.11690681112894105
4.34,0.11930315411987438
4.344,0.0772912712307727
4.348,0.12553865970065878
4.352,0.07346973011422643
4.356,0.10377371138736674
4.36,0.09033860303071531
4.364,0.05912421664916323
4.368,0.08093631348148718
4.372,0.08865911910822358
4.376,0.09064266589452227
4.38,0.07569468473172551
4.384,0.12162142109365479
4.388,0.10492844333711933
4.392,0.06504200987657356
4.396,0.08696664371686547
4.4,0.12134985909954071
4.404,0.1269458338571921
4.408,0.044401454985462524
4.412,0.044345562716130896
4.416,0.10201595252891395
4.42,0.043799192114255606
4.424,0.04264049844603004
4.428,0.06118820822327643
4.432,0.07668518888955018
4.436,0.06139674598482575
4.44,0.05342016701643823
4.444,0.05862090785169322
4.448,0.05564074741572596
4.452,0.04463333386400978
4.456,0.12178983150285896
4.46,0.07829667741060543
4.464,0.09925226201080393
4.468,0.06333292046073573
4.472,0.0646809002236245
4.476,0.0503362455626281
4.48,0.008854350892854274
4.484,0.04795262780630932
4.488,0.03683658225251195
4.492,0.021057972918119013
4.496,0.047911245847466796
4.5,0.11975333567706513
4.5040000000000004,0.09483581651910507
4.508,0.13013869252870036
4.5120000000000005,0.10569530512613257
4.516,0.11787048594928734
4.5200000000000005,0.08697082497769852
4.524,0.13411657240921976
4.5280000000000005,0.14310837282524036
4.532,0.1095788796725204
4.5360000000000005,0.14191781018744598
4.54,0.15369473095814032
4.5440000000000005,0.137028759846881
4.548,0.12548324851401396
4.5520000000000005,0.12113974027047597
4.556,0.15410433136116972
4.5600000000000005,0.1682188354688544
4.564,0.14726719008212505
4.5680000000000005,0.1657884300518147
4.572,0.17145026796653343
4.5760000000000005,0.16851535289842337
4.58,0.19463774056975602
4.5840000000000005,0.1896841095852943
4.588,0.12604451964075963
4.5920000000000005,0.18105848910667832
4.596,0.11808236259012092
4.6000000000000005,0.15754803606388512
4.604,0.13315560727713077
4.6080000000000005,0.11340510506203663
4.612,0.06613210555913476
4.616,0.099863954330825
4.62,0.06629794245915109
4.624,0.13105893440996602
4.628,0.13899361427406137
4.632,0.07096716894401191
4.636,0.09360697721802452
4.64,0.0714257965109086
4.644,0.07776202084100055
4.648,0.10923041985616377
4.652,0.0807443460370518
4.656,0.12218641343673811
4.66,0.07174510045831499
4.664,0.11408878940275642
4.668,0.08913568216867471
4.672,0.09947646699733409
4.676,0.06627019100654795
4.68,0.08186718134363025
4.684,0.08516396713072862
4.688,0.06223985467928991
4.692,0.08633739366665605
4.696,0.07360449991690401
4.7,0.06734438802189872
4.704,0.09572436753459432
4.708,0.11484671928389699
4.712,0.1236333351313476
4.716,0.24471760804718679
4.72,0.36709004727765226
4.724,0.5533694700947834
4.728,0.7060882187479681
4.732,0.9152434647755777
4.736,1.0180927711516994
4.74,1.1079462727676506
4.744,1.1984584469808808
4.748,1.1053275798803985
4.752,1.0380693550512456
4.756,0.9908557456760373
4.76,0.8240841556173983
4.764,0.6583330776550492
4.768,0.43696556209768794
4.772,0.2969023549522044
4.776,0.2083373246472024
4.78,0.08490885346518039
4.784,0.014231169198051143
4.788,-0.027693545432756025
4.792,-0.03139547409964532
4.796,-0.05853375229740888
4.8,0.03168555007412518
4.804,0.07634346141026133
4.808,0.033553809153636024
4.812,0.06392762898460536
4.816,0.059257258903522236
4.82,0.0763632529950104
4.824,0.11214844174865066
4.828,0.06013727368390678
4.832,0.12380408212823454
4.836,0.12835510847351894
4.84,0.1123416587739208
4.844,0.06595788322727017
4.848,0.1048205418073381
4.852,0.1577404677762441
4.856,0.059846308297706444
4.86,0.13119805109215552
4.864,0.12130725326813833
4.868,0.1742906397372762
4.872,0.13612778286839244
4.876,0.16713844811116052
4.88,0.1834206997742067
4.884,0.22774935887520995
4.888,0.18174527319848735
4.892,0.19660561424747106
4.896,0.15560087582087972
4.9,0.23613454967232267
4.904,0.20121763667929213
4.908,0.21235794739155267
4.912,0.2272327852786707
4.916,0.1951020277448988
4.92,0.2542199726588927
4.924,0.28702264538336086
4.928,0.2765678432524182
4.932,0.23096425073799234
4.936,0.27376142131802766
4.94,0.30926254592764607
4.944,0.2573611210144835
4.948,0.28284315455376285
4.952,0.33178714584142
4.956,0.3212409911872376
4.96,0.3368172509926765
4.964,0.38451393212602664
4.968,0.35279636730626973
4.972,0.35510320703017967
4.976,0.40822545756884204
4.98,0.3441192196172073
4.984,0.3378180293220889
4.988,0.36814629460906234
4.992,0.36249440353028883
4.996,0.3365400470034118
5.0,0.32921543862634534
5.0040000000000004,0.41733539196677893
5.008,0.3636945071535048
5.0120000000000005,0.3275487637698361
5.016,0.3632545273533767
5.0200000000000005,0.3393357508599446
5.024,0.3368052233409204
5.0280000000000005,0.3497536330035005
5.032,0.2905303727222256
5.0360000000000005,0.32312839711643876
5.04,0.36103790920648543
5.0440000000000005,0.3233516099875478
5.048,0.2925244679187568
5.0520000000000005,0.27430124864815514
5.056,0.26638903183410306
5.0600000000000005,0.2676542057281801
5.064,0.26176967914788746
5.0680000000000005,0.28335750995065434
5.072,0.2014415215925791
5.0760000000000005,0.25552789678516724
5.08,0.2216348534522884
5.0840000000000005,0.23780044893764682
5.088,0.1897066722987452
5.0920000000000005,0.23590541675940072
5.096,0.22372283322967124
5.1000000000000005,0.21458915021531114
5.104,0.15101200707281662
5.1080000000000005,0.20028944291398265
5.112,0.1757916043941529
5.1160000000000005,0.11683637133323868
5.12,0.155869533890714
5.124,0.1654302179236644
5.128,0.1625066390698084
5.132,0.14078429652762184
5.136,0.13658643873259244
5.14,0.1673106289508789
5.144,0.16260429586914135
5.148,0.05418332962918827
5.152,0.10725443256214214
5.156,0.10556464534046354
5.16,0.06852774272993191
5.164,0.11759283148449132
5.168,0.14172345519942878
5.172,0.07396202553905551
5.176,0.10524594079881636
5.18,0.07773515849592383
5.184,0.08781211241543749
5.188,0.13780779945781346
5.192,0.07885406095275016
5.196,0.100534457767922
5.2,0.04677521790954534
5.204,0.14480737011927752
5.208,0.11022933310262992
5.212,0.0827354752429126
5.216,0.09878072910570627
5.22,0.054203077186004846
5.224,0.12413679504014796
5.228,0.083774429302523
5.232,0.07925475440014294
5.236,0.06947252936320801
5.24,0.0725891662798343
5.244,0.10986057080823358
5.248,0.09644143632237197
5.252,0.09906442128294794
5.256,0.08020854527187982
5.26,0.09886865010371586
5.264,0.08125793952209605
5.268,0.14537554159021382
5.272,0.043585226482342934
5.276,0.11248276924192913
5.28,0.12140409614670422
5.284,0.07237456987980012
5.288,0.14826606440414605
5.292,0.11172076863667127
5.296,0.11065186251572055
5.3,0.09491490168566087
5.304,0.09708376665194438
5.308,0.09818825092017841
5.312,0.10974035449913586
5.316,0.13695914039732357
5.32,0.11681130810196408
5.324,0.10031298862997662
5.328,0.1470499828717144
5.332,0.14824572656084142
5.336,0.14542418008811064
5.34,0.15946432652489026
5.344,0.14569834278662985
5.348,0.13270079852619215
5.352,0.13231093380863637
5.356,0.11542271075546603
5.36,0.17157606715125467
5.364,0.1719312328301289
5.368,0.16241042486898538
5.372,0.09288337019120677
5.376,0.13264882048574458
5.38,0.1956383962809884
5.384,0.15369485400415347
5.388,0.1731459262632696
5.392,0.11746382337384532
5.396,0.18048973212879046
5.4,0.14059587601412687
5.404,0.15080456868837427
5.408,0.19303242701303022
5.412,0.15929085726169062
5.416,0.1052610467398818
5.42,0.09782920895806886
5.424,0.10465495661671244
5.428,0.11825609018942519
5.432,0.09122693938865964
5.436,0.07772245772813458
5.44,0.12643274034679622
5.444,0.08954246171072645
5.448,0.1451052410651255
5.452,0.08064329758814308
5.456,0.11900735120930063
5.46,0.08751017246064165
5.464,0.10712421277157663
5.468,0.06175143131367343
5.472,0.05066445187044613
5.476,0.08069684872815701
5.48,0.0991565480873925
5.484,0.08074141033486204
5.488,0.044659720550551806
5.492,0.03375866635155766
5.496,0.025040118177789575
5.5,0.013078680571156444
5.5040000000000004,0.05338468700288347
5.508,0.06782964720664258
5.5120000000000005,0.040452344020034614
5.516,0.02321814528080683
5.5200000000000005,0.16592845855649238
5.524,0.30181571624540343
5.5280000000000005,0.5187854446306269
5.532,0.6018386047058328
5.5360000000000005,0.8039616608438594
5.54,1.0223248221757228
5.5440000000000005,1.1245678961643013
5.548,1.2072987974304554
5.5520000000000005,1.214835902990128
5.556,1.1827458186458348
5.5600000000000005,1.105622343133785
5.564,0.928538186528479
5.5680000000000005,0.7918082425062934
5.572,0.5370477814158358
5.5760000000000005,0.3909156081744831
5.58,0.22885552639314902
5.5840000000000005,0.0859611202554915
5.588,0.011509174243821755
5.5920000000000005,-0.05684231555505998
5.596,-0.0826259435922101
5.6000000000000005,-0.04794517858201325
5.604,-0.03772414000871066
5.6080000000000005,0.02209958085914923
5.612,0.0017350523235326529
5.6160000000000005,0.06424117836877714
5.62,0.03525298549189068
5.6240000000000006,0.06464688721849561
5.628,0.06646640222776894
5.632,0.11203026705037036
5.636,0.08814559210733441
5.64,0.08328109844890402
5.644,0.10981694694484277
5.648,0.04577954847534031
5.652,0.09390184113621321
5.656,0.14662727535881792
5.66,0.10992475929656707
5.664,0.11858286873414788
5.668,0.13332081882099872
5.672,0.14022061158262047
5.676,0.07133623996753591
5.68,0.09089750958863618
5.684,0.15024539363982425
5.688,0.13160409968602962
5.692,0.1822201673379799
5.696,0.14667094472434297
5.7,0.11949717030617199
5.704,0.14973939343432108
5.708,0.11863190161286709
5.712,0.1827890210707906
5.716,0.19024606704942243
5.72,0.19867425575739028
5.724,0.2506742204797292
5.728,0.2602341184375285
5.732,0.2276939961139128
5.736,0.18507666919132362
5.74,0.26813049855054427
5.744,0.28065771372586806
5.748,0.28046016537521445
5.752,0.29804380723190416
5.756,0.2496863463763532
5.76,0.3417995217709997
5.764,0.27989994653556954
5.768,0.3265130363482634
5.772,0.2640489840443856
5.776,0.2856803425758442
5.78,0.3567741026782518
5.784,0.32157028544589233
5.788,0.3497004383091127
5.792,0.3296032684888649
5.796,0.3201272219680557
5.8,0.3630124583643422
5.804,0.3283650005724687
5.808,0.28644235146067837
5.812,0.30189195461537804
5.816,0.33085861139964384
5.82,0.329198108139941
5.824,0.2816312869503088
5.828,0.2956083234517642
5.832,0.28654433271938623
5.836,0.28357234545722687
5.84,0.2572430398095729
5.844,0.274337902903388
5.848,0.2618802321465849
5.852,0.28414218561984234
5.856,0.274355438480747
5.86,0.24734160691466409
5.864,0.2378041336728006
5.868,0.23965281879609968
5.872,0.19929090384327172
5.876,0.17938953313141132
5.88,0.18078028195551976
5.884,0.18467656184607617
5.888,0.15991885359626518
5.892,0.1767705754227278
5.896,0.17971850878745502
5.9,0.11864704042551971
5.904,0.1560409239580483
5.908,0.13938463833931583
5.912,0.1383099121754268
5.916,0.11952467573638319
5.92,0.08179933842750892
5.924,0.08521232800105444
5.928,0.10860451184010962
5.932,0.12016655912580777
5.936,0.030900947761573823
5.94,0.09494863719677653
5.944,0.11644697256620551
5.948,0.07574023759274782
5.952,0.08164230603161861
5.956,0.04383072525398218
5.96,0.060142335794071716
5.964,0.02462210128044017
5.968,0.0009538098134660999
5.972,0.0729450040967491
5.976,0.019692411675837643
5.98,0.0359947398846028
5.984,0.016009824105967657
5.988,0.011030060953462026
5.992,0.03285885850902466
5.996,0.01494036342866185
6.0,0.046651071924398366
6.0040000000000004,0.052684257219792585
6.008,0.04580869488702844
6.0120000000000005,0.03541631571037171
6.016,0.06554224119614782
6.0200000000000005,0.0040389095067120545
6.024,0.03407381433589756
6.0280000000000005,0.060675109106395106
6.032,0.056077734025469055
6.0360000000000005,-0.014038140191621418
6.04,0.018679082386912613
6.0440000000000005,0.0654708773670869
6.048,0.04140584524552299
6.0520000000000005,0.025934711885660808
6.056,0.01286678242219376
6.0600000000000005,0.013884694691853008
6.064,0.03588227443436928
6.0680000000000005,0.019702867877469495
6.072,0.017432747374582874
6.0760000000000005,0.01784458143625463
6.08,0.004221504467680329
6.0840000000000005,0.039798989662504725
6.088,0.09682280069829291
6.0920000000000005,-0.02781811213579428
6.096,0.022274759596753693
6.1000000000000005,0.0006930362631683007
6.104,0.039745263025892014
6.1080000000000005,0.02431406780888636
6.112,0.03530574682114341
6.1160000000000005,0.04380814373935725
6.12,0.025496205163371206
6.1240000000000006,0.055514838018752274
6.128,-0.032441607581773016
6.132000000000001,0.06036523663314563
6.136,0.0296999558438516
6.140000000000001,0.05532619374584703
6.144,0.006426778820187853
6.148,0.01732220725388106
6.152,0.038550856702495556
6.156,0.036664257239954326
6.16,0.054705676107295174
6.164,0.08568080934773942
6.168,0.017798077780639632
6.172,0.08494889621172938
6.176,0.06440292145259059
6.18,0.070459662288468
6.184,0.049837551445796754
6.188,0.10188792474321434
6.192,0.026125188017967906
6.196,0.10390847673464153
6.2,0.058544488463307835
6.204,0.10426735580297156
6.208,0.09801735458475472
6.212,0.12227079547398724
6.216,0.08434043780190953
6.22,0.07404335758384539
6.224,0.08035546365933463
6.228,0.11775113454254374
6.232,0.08670366451926802
6.236,0.05540559017726676
6.24,0.05846225953205614
6.244,0.024389721670298986
6.248,0.0646244346685525
6.252,-0.002433871766170964
6.256,0.05217988755564534
6.26,0.03670505442779203
6.264,0.0937295577212509
6.268,-0.0002658657854154971
6.272,0.013495785864838475
6.276,0.055229428169634484
6.28,0.042641712929931276
6.284,-0.0015096772508176107
6.288,0.017058127579682114
6.292,0.0025613729421822247
6.296,0.005800860277092999
6.3,-0.014320292027900399
6.304,0.005536656970451336
6.308,-0.03524636958124534
6.312,0.0003243728940745278
6.316,0.005468746631389685
6.32,-0.00625386472638693
6.324,-0.03604500064823769
6.328,0.02481719000202115
6.332,-0.002698078940862351
6.336,-0.04121346411755179
6.34,-0.03655465814034706
6.344,-0.07002108456297541
6.348,-0.05237124760997007
6.352,-0.006871746983483666
6.356,0.11883739287140496
6.36,0.2050142870347036
6.364,0.4024836176136197
6.368,0.5465673544358616
6.372,0.7336152496338673
6.376,0.8790468938030108
6.38,1.0357115314209215
6.384,1.0867649052485675
6.388,1.0839084289271528
6.392,1.0468639962014294
6.396,0.9734993944446899
6.4,0.8206287587049539
6.404,0.6941551866089678
6.408,0.4820014302379627
6.412,0.3627574708128808
6.416,0.09664960781279922
6.42,0.024457282362761516
6.424,-0.08867633610089648
6.428,-0.12045342404790645
6.432,-0.12377508242561054
6.436,-0.1767858912017608
6.44,-0.08415647770700839
6.444,-0.010927764144381902
6.448,-0.048919035241600205
6.452,-0.020324122798112264
6.456,0.009049468819961493
6.46,-0.006793969814523138
6.464,-0.006137378880775575
6.468,-0.04686258666854317
6.472,0.02213474932469477
6.476,0.004053581944797251
6.48,-0.009685656556433189
6.484,0.02776586172812016
6.488,0.011374564286494282
6.492,0.00955968789848277
6.496,0.03993365921246146
6.5,0.001547903460990277
6.5040000000000004,0.07176769950125358
6.508,0.013684739517517468
6.5120000000000005,0.03057995784862858
6.516,0.09896649175437636
6.5200000000000005,0.09105434762037472
6.524,0.0776264452987298
6.5280000000000005,0.056429407814234146
6.532,0.0669041073923287
6.5360000000000005,0.08732587054222989
6.54,0.09994332441968731
6.5440000000000005,0.11048399537225001
6.548,0.11805672052529535
6.5520000000000005,0.11483723971994385
6.556,0.0905211736801613
6.5600000000000005,0.12800538004725187
6.564,0.1781717668561467
6.5680000000000005,0.12759034033532063
6.572,0.15861639277620226
6.5760000000000005,0.14917488889826616
6.58,0.18647863168727266
6.5840000000000005,0.18777449836906812
6.588,0.24004619689522655
6.5920000000000005,0.21617717190046187
6.596,0.17558995156614282
6.6000000000000005,0.2374665544642067
6.604,0.2131101168290453
6.6080000000000005,0.22139612365320194
6.612,0.24153127612314798
6.6160000000000005,0.22348277518292645
6.62,0.26738953618775596
6.6240000000000006,0.2342803894351484
6.628,0.23811584724104964
6.632000000000001,0.23149027924421467
6.636,0.232166406473982
6.640000000000001,0.27929804675331826
6.644,0.27226592593580046
6.648000000000001,0.2953597592268297
6.652,0.29973002165787754
6.656000000000001,0.21182842223978052
6.66,0.2410817082902731
6.664,0.21095396854674694
6.668,0.21342019427732378
6.672,0.2041269971938141
6.676,0.18477968505872816
6.68,0.18361332622459003
6.684,0.20454435988631645
6.688,0.167682383389761
6.692,0.20387900821388638
6.696,0.14918919962058907
6.7,0.2393311564474822
6.704,0.1545893883201212
6.708,0.1564501845372945
6.712,0.106102712443329
6.716,0.16983618912891515
6.72,0.1517926221432856
6.724,0.12793403518779695
6.728,0.07578984413191645
6.732,0.098970492749942
6.736,0.05499106253636492
6.74,0.1170323637471869
6.744,0.09841589094591996
6.748,0.07068856836649073
6.752,-0.0070540384209857795
6.756,0.02002246305329901
6.76,0.06077839614920885
6.764,0.07322935622017607
6.768,0.06242468834531634
6.772,-0.017837649681095292
6.776,0.02199396398816468
6.78,0.040568830711437465
6.784,-0.025210822728768303
6.788,0.009562782677304166
6.792,0.005567207477285903
6.796,-0.014653687790215085
6.8,-0.05111186785782923
6.804,-0.010341210739923633
6.808,-0.015390890499171672
6.812,-0.0205413294122577
6.816,-0.035447380788361196
6.82,-0.02885030833629077
6.824,-0.014976949085160219
6.828,-0.006828369527167116
6.832,-0.034104742406344965
6.836,-0.04030534551626361
6.84,-0.02329266870792175
6.844,-0.06902827409378957
6.848,-0.012248205790658176
6.852,-0.03212122174395259
6.856,-0.034075522430778146
6.86,-0.006035809394996785
6.864,-0.07378173227856005
6.868,-0.07702972924325761
6.872,-0.0283722553843931
6.876,-0.03799904089174313
6.88,-0.028234766394040836
6.884,-0.03866608021612432
6.888,-0.012973920981928712
6.892,-0.01357426113022054
6.896,-0.027190794603141916
6.9,-0.040293140310835335
6.904,-0.08091478081173017
6.908,-0.011294244515668832
6.912,-0.007121343363966224
6.916,-0.023773302759965552
6.92,-0.056163312206898755
6.924,-0.011548329739703406
6.928,-0.008906453607435662
6.932,0.0017517557590834773
6.936,-0.06091918586036687
6.94,-0.038430854138232814
6.944,-0.007645168315604179
6.948,-0.026097733311564845
6.952,-0.06126247811188003
6.956,-0.023554016158603468
6.96,-0.011775117673695065
6.964,-0.015935407870892645
6.968,-0.011952259107817524
6.972,-0.0275868347266107
6.976,0.017556917453887516
6.98,-0.03178896685304676
6.984,-0.013324447364653526
6.988,0.004832463223689069
6.992,0.0252377362316559
6.996,-0.03031248224267886
7.0,-0.013742860330668762
7.0040000000000004,-0.02003997272226886
7.008,0.03554840418192276
7.0120000000000005,0.00537073218506209
7.016,0.026645425882509777
7.0200000000000005,0.06289405425337034
7.024,0.0395467849309407
7.0280000000000005,0.061701295435347824
7.032,0.0427939551691236
7.0360000000000005,0.06515548662121456
7.04,0.06502527683468018
7.0440000000000005,0.03951183137310236
7.048,0.047318198249304166
7.0520000000000005,0.06654245213263944
7.056,0.043282826901254075
7.0600000000000005,-0.001209337256597734
7.064,0.04993381748062486
7.0680000000000005,-0.0018831562511930112
7.072,0.04728255367855051
7.0760000000000005,0.02926778177083682
7.08,0.0107182946323257
7.0840000000000005,0.007546618599989871
7.088,-0.008925849414658564
7.0920000000000005,0.0015575888310723884
7.096,-0.03099030101783263
7.1000000000000005,-0.013736157178408561
7.104,0.004781749586605866
7.1080000000000005,-0.03585275033133747
7.112,-0.04642947101400633
7.1160000000000005,-0.06482498979981449
7.12,-0.05727978936513136
7.1240000000000006,-0.07177563639640964
7.128,-0.010844626948185162
7.132000000000001,0.008455543824601612
7.136,-0.0037422833708181877
7.140000000000001,-0.07457158444410361
7.144,-0.010199607626982507
7.148000000000001,0.004926417595736525
7.152,-0.0497622921441747
7.156000000000001,-0.04034489257403724
7.16,-0.09312053033596461
7.164000000000001,-0.04062904407065397
7.168,-0.08791280661292396
7.172,-0.06814845193539913
7.176,-0.09724525329427963
7.18,0.015359020576835053
7.184,0.13264791879017224
7.188,0.22634752790100993
7.192,0.3795722491157265
7.196,0.5316100759470254
7.2,0.7577694414716526
7.204,0.9067447449112321
7.208,0.9949205957187776
7.212,1.103261751642082
7.216,1.0856461955709376
7.22,1.0220341231027985
7.224,0.9309878582489639
7.228,0.8151786151515855
7.232,0.6143873025791569
7.236,0.40345202527416524
7.24,0.24820883464460156
7.244,0.05669589961576701
7.248,-0.03053792452139687
7.252,-0.10773113361542895
7.256,-0.15936704312780314
7.26,-0.13436361650429499
7.264,-0.14268270245468073
7.268,-0.08722547559966584
7.272,-0.06702170357782056
7.276,-0.13364956162641226
7.28,-0.008564349175547062
7.284,-0.09729378338597905
7.288,-0.031013848015633283
7.292,0.008240220027668062
7.296,-0.023486414945450767
7.3,-0.04298713902564925
7.304,-0.02452938865363076
7.308,0.029891407265883938
7.312,-0.047039238434169156
7.316,0.031174244372501603
7.32,0.011731320637728936
7.324,-0.006204904264080151
7.328,0.011983423971020696
7.332,-0.00043424100510947375
7.336,0.050316985079334096
7.34,0.05887983490681774
7.344,0.009852317734011254
7.348,0.047466430263012345
7.352,0.03616695467667367
7.356,0.09547459153323239
7.36,0.042969505707664224
7.364,0.13070052354757655
7.368,0.09601151508313524
7.372,0.06940344069330945
7.376,0.08820052248703766
7.38,0.09981951375206621
7.384,0.10284153523128253
7.388,0.14411283015651807
7.392,0.11323116262753401
7.396,0.0964545794138783
7.4,0.15631244357538127
7.404,0.13543752329128167
7.408,0.16833000599319412
7.412,0.16590595512299888
7.416,0.17291611957668807
7.42,0.25830123228769264
7.424,0.22284288204868116
7.428,0.23235613044164408
7.432,0.18119468728914595
7.436,0.21293022622926425
7.44,0.24559519170994587
7.444,0.22486451336422772
7.448,0.27485436279759223
7.452,0.21815219436939443
7.456,0.24124221435968685
7.46,0.2410408221077666
7.464,0.26630230923627335
7.468,0.24400480678453573
7.472,0.24540213302501027
7.476,0.24251951489061802
7.48,0.23342967831891792
7.484,0.2665373391041687
7.488,0.2543861441680897
7.492,0.23466901233590307
7.496,0.218808647440363
7.5,0.24945290991259053
7.5040000000000004,0.22305775637202294
7.508,0.21231073369909464
7.5120000000000005,0.20829635282775932
7.516,0.23827479914947797
7.5200000000000005,0.16008210554901453
7.524,0.21029054803492822
7.5280000000000005,0.13306267733400856
7.532,0.17013638675508136
7.5360000000000005,0.19316329382561553
7.54,0.16292078154568465
7.5440000000000005,0.15189041672814924
7.548,0.12270109716001254
7.5520000000000005,0.12180181115724328
7.556,0.10405396753003517
7.5600000000000005,0.088104310269429
7.564,0.09812286767293107
7.5680000000000005,0.10030862347579078
7.572,0.061550727991067165
7.5760000000000005,0.05112954718786974
7.58,0.03604041979286308
7.5840000000000005,0.07890794350795537
7.588,0.07432464844164073
7.5920000000000005,0.05351274370090399
7.596,0.06410950579513641
7.6000000000000005,0.04267808183640676
7.604,0.05113665944093414
7.6080000000000005,0.042250223728413715
7.612,0.021151441928123325
7.6160000000000005,0.0041610195935850025
7.62,0.07498402187995679
7.6240000000000006,0.010838551674295335
7.628,0.0004062748826542499
7.632000000000001,0.018225661601491368
7.636,0.009132593964556464
7.640000000000001,-0.028687633345975714
7.644,0.03832829084839458
7.648000000000001,0.004067057878023046
7.652,-0.029862901908674033
7.656000000000001,0.02417848809798446
7.66,0.01470655198159929
7.664000000000001,-0.027786225486123365
7.668,0.04527668421531959
7.672000000000001,0.00959303564909432
7.676,-0.009864384119994383
7.68,0.03540541489654328
7.684,0.004987052707912674
7.688,-0.0021435462781318726
7.692,-0.02519284143801269
7.696,0.003558409676632582
7.7,0.006570559226606974
7.704,0.0007187774894953476
7.708,-0.021540804268138876
7.712,-0.005518320314771145
7.716,-0.012576597175495951
7.72,-0.0383149820201414
7.724,-0.03589048578974112
7.728,0.01305782744562627
7.732,-0.07294187281630078
7.736,-0.0046833004510071765
7.74,-0.015781143233857493
7.744,0.034897279769672336
7.748,-0.011975248532373603
7.752,0.010189333828197224
7.756,-0.01795054636948134
7.76,0.0010425645831488278
7.764,0.022936169323677792
7.768,-0.008504286237921843
7.772,0.021787162575453614
7.776,-0.029104116948689522
7.78,0.010071139902250552
7.784,0.0330010134715495
7.788,0.026086211141194145
7.792,0.05262839635587572
7.796,-0.013960648170628972
7.8,-0.02061484910114727
7.804,-0.001777350954514468
7.808,0.04142367315487203
7.812,0.034824202698180304
7.816,0.027760453440314824
7.82,0.008295575443862745
7.824,0.06709300610483453
7.828,0.021263490920853105
7.832,0.08011592990021915
7.836,0.12674558604092592
7.84,0.0763953892106304
7.844,0.09343358109144088
7.848,0.06978952307700925
7.852,0.03458352116191733
7.856,0.06656088642745263
7.86,0.06303678673992724
7.864,0.06186683563729667
7.868,0.13978706302635938
7.872,0.09623074466941516
7.876,0.09534858901073726
7.88,0.08142232625558815
7.884,0.08718016040216499
7.888,0.10928234122122302
7.892,0.07251094225787703
7.896,0.07914273657724225
7.9,0.06112659435809912
7.904,0.057506670808150716
7.908,0.023078245622684332
7.912,-0.0036920737583749294
7.916,0.031887707603054836
7.92,0.0407914685179765
7.924,0.008632608553181369
7.928,0.0339365078259284
7.932,0.025786097821438224
7.936,-0.03444175807150651
7.94,-4.201369327948984e-05
7.944,0.03683599115525796
7.948,0.03266103584043535
7.952,-0.014049940396996032
7.956,0.015737777047698607
7.96,0.04246599364241836
7.964,0.04168187069142518
7.968,0.01752768049021641
7.972,0.0011654051432560906
7.976,-0.004890556478436198
7.98,0.028442692931192073
7.984,0.0271798513083741
7.988,0.034404454459026845
7.992,0.010590236353216494
7.996,0.01710218726047882
8.0,-0.006580835546329077
8.004,0.009210624434294861
8.008000000000001,0.019311320281502734
8.012,0.013176455154255355
8.016,0.07151312580400178
8.02,0.288686477799582
8.024000000000001,0.4207943577400379
8.028,0.5423479252146537
8.032,0.7309690852933322
8.036,0.9188561492312906
8.040000000000001,1.0192022504391476
8.044,1.0951512866061521
8.048,1.1622608825604974
8.052,1.056677880150152
8.056000000000001,0.9673901574940058
8.06,0.8586894157215669
8.064,0.6980885474651556
8.068,0.5149625851871847
8.072000000000001,0.34069285645987024
8.076,0.16571116448376
8.08,0.05825829073132389
8.084,-0.03502702164449621
8.088000000000001,-0.07050522453560773
8.092,-0.0857966265190968
8.096,-0.07291148081170049
8.1,-0.02980873822604275
8.104000000000001,-0.00363307769784596
8.108,0.004341777952077337
8.112,-0.006353492581352139
8.116,0.025851163629785862
8.120000000000001,0.03756194950640128
8.124,0.05454994222455121
8.128,0.10700520355117976
8.132,0.035361137360368375
8.136000000000001,0.06034574996765881
8.14,0.08581702055094675
8.144,0.07109208975890281
8.148,0.12901529259092956
8.152000000000001,0.05847591159436766
8.156,0.07858066210809472
8.16,0.06127587830037483
8.164,0.08356239867621107
8.168000000000001,0.10213341509143774
8.172,0.1160958229632546
8.176,0.10715836852113475
8.18,0.1431236722525308
8.184000000000001,0.12206433833951481
8.188,0.12135700008049988
8.192,0.19791019257406678
8.196,0.14597048755971878
8.2,0.13207470078193387
8.204,0.14688194500109908
8.208,0.14716032046332733
8.212,0.19591888884157765
8.216,0.17016933277306068
8.22,0.19720294361250834
8.224,0.20720510278309295
8.228,0.23395277194640576
8.232,0.19642870540417925
8.236,0.19739291833168543
8.24,0.2442845679267007
8.244,0.2678638440550136
8.248,0.2671411911072286
8.252,0.2393607652895615
8.256,0.2817769427385453
8.26,0.2589179907470193
8.264,0.27664536946147006
8.268,0.2698145535630271
8.272,0.3241994715436918
8.276,0.3099976723394129
8.28,0.3189893384049619
8.284,0.3440412467346695
8.288,0.38355672579424555
8.292,0.2652655799279243
8.296,0.28840357751106116
8.3,0.297442242763791
8.304,0.2967908731699948
8.308,0.2876884257571072
8.312,0.29808058393895515
8.316,0.2702450154686076
8.32,0.31130625329446615
8.324,0.30581970588164753
8.328,0.30962726044072036
8.332,0.29789940328949793
8.336,0.29220903781145985
8.34,0.26711014301263813
8.344,0.3283348478609027
8.348,0.2717451552496593
8.352,0.2046851309525961
8.356,0.21613935454744304
8.36,0.19529499464568995
8.364,0.2366772472057212
8.368,0.22263172369882273
8.372,0.19846158711766598
8.376,0.2498022356050912
8.38,0.21053309013259702
8.384,0.21232300326036468
8.388,0.16049502964665607
8.392,0.14368512718739213
8.396,0.15954921873178451
8.4,0.1610365687020315
8.404,0.10864425173106887
8.408,0.14128067360435545
8.412,0.13230355589329976
8.416,0.11792645543719926
8.42,0.10253759583951833
8.424,0.10928684501545213
8.428,0.1107108551702713
8.432,0.10522719909645618
8.436,0.11111562455825565
8.44,0.12427761688318681
8.444,0.09148712017828838
8.448,0.08146616704589771
8.452,0.09327219039805039
8.456,0.0922348741231592
8.46,0.06891306331663308
8.464,0.10260368166340354
8.468,0.10278009451286783
8.472,0.10139717260721151
8.476,0.10947778904344378
8.48,0.047371130641242695
8.484,0.07358656260639568
8.488,0.07002349379693171
8.492,0.05908462854636012
8.496,0.042125809302980544
8.5,0.026063942261940053
8.504,0.07049150371213894
8.508000000000001,0.04616499956471687
8.512,0.059951774206424537
8.516,0.035344594241683805
8.52,0.03306608169888363
8.524000000000001,0.07185006863995415
8.528,0.06737987605879221
8.532,0.07088723804451413
8.536,0.1087755652691797
8.540000000000001,0.06671730991255033
8.544,0.07761038747084378
8.548,0.0363958623281086
8.552,0.024177755324289035
8.556000000000001,0.09384859113589718
8.56,0.03704468946834821
8.564,0.03993225844498177
8.568,0.06311986845572408
8.572000000000001,0.055100001829093956
8.576,0.03300389619550734
8.58,0.054140879457006394
8.584,0.09882490967568441
8.588000000000001,0.04653798753861356
8.592,0.025764486099384726
8.596,0.08320070655867404
8.6,0.07914303669546494
8.604000000000001,0.058856688291876964
8.608,0.03484901557009189
8.612,0.05138229282277688
8.616,0.06957801283785245
8.620000000000001,0.10943552894312071
8.624,0.06426317757284135
8.628,0.09060204585157554
8.632,0.10777749123131523
8.636000000000001,0.034900265678508735
8.64,0.13209793534934172
8.644,0.08881334724429171
8.648,0.13107948408490333
8.652000000000001,0.1284921851325201
8.656,0.15369847455906382
8.66,0.15215377131964233
8.664,0.09020679513887983
8.668000000000001,0.13266952237766325
8.672,0.15263069211918304
8.676,0.1450315267210917
8.68,0.1693279322080684
8.684000000000001,0.18340581546689644
8.688,0.17606649951151115
8.692,0.1466239473069719
8.696,0.10071316298007191
8.700000000000001,0.1372685077053988
8.704,0.16000487003591507
8.708,0.11471782372275328
8.712,0.14478654188058218
8.716,0.14332067604806187
8.72,0.12316582766391408
8.724,0.04284398654109238
8.728,0.07925412865303579
8.732,0.14558701259123047
8.736,0.0772942451051061
8.74,0.04225582816932378
8.744,0.12416956951060742
8.748,0.08770445065778834
8.752,0.10473230644837367
8.756,0.07914845668839433
8.76,0.08715526261334067
8.764,0.0886519314049107
8.768,0.09338151487225954
8.772,0.12469127412672049
8.776,0.08898553741636894
8.78,0.030272192188763897
8.784,0.08621784701174948
8.788,0.10115536214495927
8.792,0.09553103245779099
8.796,0.05253191551119071
8.8,0.09748648540081664
8.804,0.09516719531882639
8.808,0.12873600078319963
8.812,0.028751431866761035
8.816,0.020235687554922187
8.82,0.024235279498272148
8.824,0.0389530904353443
8.828,0.07702345920061245
8.832,0.11980723619250001
8.836,0.31672615368420454
8.84,0.5147700572269946
8.844,0.6846006298898291
8.848,0.9244170986235487
8.852,1.0298610125297534
8.856,1.1842695664953011
8.86,1.2394318689614134
8.864,1.2751312044083798
8.868,1.2120773773613303
8.872,1.1258305747494948
8.876,0.936299310256463
8.88,0.7671430356189849
8.884,0.5722445359133514
8.888,0.3648894387282322
8.892,0.21226920660440338
8.896,0.1309717658180928
8.9,-0.007556766828633473
8.904,-0.025050784530316957
8.908,-0.013526106646565866
8.912,-0.008764323273736614
8.916,-0.013681952988174291
8.92,-0.040575243722836205
8.924,0.061300729863103816
8.928,0.008674670312067582
8.932,0.10630670551941838
8.936,0.07987085172215588
8.94,0.11190868585532238
8.944,0.07420659494193696
8.948,0.05929350269196246
8.952,0.10097047738769369
8.956,0.09495341075578143
8.96,0.09297555958944032
8.964,0.11715010645572754
8.968,0.18642975721051364
8.972,0.13578611289699613
8.976,0.14406633241360353
8.98,0.15007912700476922
8.984,0.17748318655112777
8.988,0.13974005053646807
8.992,0.09260743883015635
8.996,0.14397797401684045
9.0,0.18193669077503857
9.004,0.1506844068917583
9.008000000000001,0.17623867129723478
9.012,0.1644950077310671
9.016,0.22562629113918004
9.02,0.22122526138601048
9.024000000000001,0.2333972446366531
9.028,0.23955072038986425
9.032,0.22523303601527503
9.036,0.23820956178969266
9.040000000000001,0.21866252396260039
9.044,0.20862872272328062
9.048,0.27407398799828003
9.052,0.2804428595360725
9.056000000000001,0.3092730653240649
9.06,0.33265227196143377
9.064,0.34662877833742856
9.068,0.2881745085305868
9.072000000000001,0.3047541656544693
9.076,0.3303845638210487
9.08,0.39382639119519114
9.084,0.37908351096362586
9.088000000000001,0.37308435852310734
9.092,0.33285841434530455
9.096,0.32207178914766316
9.1,0.3725980597144164
9.104000000000001,0.33329522700162306
9.108,0.35409442407430886
9.112,0.35073588420422314
9.116,0.391026155772849
9.120000000000001,0.3469951496958189
9.124,0.2987238259399223
9.128,0.3674708560514563
9.132,0.32688479931807224
9.136000000000001,0.339048195028524
9.14,0.33660444019823244
9.144,0.33204013118116815
9.148,0.3502313972285725
9.152000000000001,0.27828184534000544
9.156,0.29414922981967323
9.16,0.32205490790709335
9.164,0.28706139084453486
9.168000000000001,0.25140660153895544
9.172,0.2923801877160154
9.176,0.2924176569375205
9.18,0.2595961150453132
9.184000000000001,0.20796026437026563
9.188,0.2629420081437901
9.192,0.18722496945213957
9.196,0.22478931720251244
9.200000000000001,0.19120876640914286
9.204,0.18086364279912642
9.208,0.18756988566259253
9.212,0.1781365198150262
9.216000000000001,0.155839132100192
9.22,0.18405236265444577
9.224,0.15587708094675795
9.228,0.18166544846513505
9.232,0.1497878684813185
9.236,0.11614301854018534
9.24,0.1110026757759244
9.244,0.09089730565845852
9.248,0.13126603023547562
9.252,0.10253562871794827
9.256,0.04473048749910753
9.26,0.09151491810440651
9.264,0.08359632088040811
9.268,0.13917322039077284
9.272,0.04631500460944256
9.276,0.04713149428291701
9.28,0.11337004442096359
9.284,0.12226846781344818
9.288,0.06482429509538543
9.292,0.05811285287488059
9.296,0.08488481152792209
9.3,0.014959037776564106
9.304,0.030456022960377103
9.308,0.06610707622840806
9.312,0.10329961018153254
9.316,0.05010664999065542
9.32,0.06799002006561168
9.324,0.09839831268687763
9.328,0.11953489480797422
9.332,0.044473856368956344
9.336,0.0554666550767746
9.34,0.10639418006869554
9.344,0.0278109310560933
9.348,0.08875237826464104
9.352,0.029980546645975194
9.356,0.0552954227021594
9.36,0.05188911755359549
9.364,0.0392597952690824
9.368,0.03603185829207779
9.372,0.06007095407437743
9.376,0.07549615407609238
9.38,0.05271638679168511
9.384,0.06308137640392332
9.388,0.07310548556056641
9.392,0.027173092616812
9.396,0.06748036188652318
9.4,0.07489592046717908
9.404,0.12494288354221492
9.408,0.048022343355119165
9.412,0.03869569101959907
9.416,0.06699967374006426
9.42,0.07380825842616798
9.424,0.04556353384005676
9.428,0.046658240535351087
9.432,0.06328305384928234
9.436,0.027078403267501806
9.44,0.0435585273799955
9.444,0.06230845752717562
9.448,0.08356418456692283
9.452,0.037558054470730684
9.456,0.005829168105053108
9.46,0.011461668610159438
9.464,0.035814610678938964
9.468,0.034987495208311126
9.472,0.06010805381303787
9.476,0.035815724506190305
9.48,0.05795502588424273
9.484,0.06667290709892039
9.488,0.07809563409041106
9.492,0.12077327003181149
9.496,0.10802405979990616
9.5,0.10368578996549045
9.504,0.10356405213154166
9.508000000000001,0.1080045158234703
9.512,0.12553815744668967
9.516,0.13477935864663798
9.52,0.1074667623289264
9.524000000000001,0.14015227312269915
9.528,0.0886108547505309
9.532,0.13884443085546375
9.536,0.15043356117711698
9.540000000000001,0.12888387060575385
9.544,0.18463030192442237
9.548,0.11153645698168357
9.552,0.12750323510149097
9.556000000000001,0.11371936284065162
9.56,0.11188936771105554
9.564,0.11085563659510006
9.568,0.10754698008941542
9.572000000000001,0.11225775524586144
9.576,0.1166405807713087
9.58,0.08138624911649056
9.584,0.10141125100399137
9.588000000000001,0.05561547952945427
9.592,0.08005945256729341
9.596,0.03501339602357976
9.6,0.08290606939015865
9.604000000000001,0.11300889323725367
9.608,0.049407714571456325
9.612,-0.012050244156321686
9.616,0.024652429686516153
9.620000000000001,0.07299117757458329
9.624,0.060174026547602795
9.628,0.04910267584251118
9.632,0.0599819563913897
9.636000000000001,0.043834380491967986
9.64,0.06719109406876143
9.644,0.0649053404886853
9.648,0.07724052746780417
9.652000000000001,0.04005534650932547
9.656,0.04880051293759438
9.66,0.018046208664254056
9.664,0.005760671086836089
9.668000000000001,0.048558872563555434
9.672,-0.0018028444969687748
9.676,0.026411055354757587
9.68,0.06846528810670856
9.684000000000001,0.1563338921941561
9.688,0.3123288233774536
9.692,0.5139174214677538
9.696,0.6745517524194927
9.700000000000001,0.8025687257514208
9.704,1.0026613797844668
9.708,1.1703917255028518
9.712,1.183119906046623
9.716000000000001,1.1512694995507224
9.72,1.1965197960435385
9.724,1.0608499276500225
9.728,0.8820965699413145
9.732,0.6801599518095488
9.736,0.5172903099268245
9.74,0.295512477830584
9.744,0.1836927059536305
9.748,0.045212877938064146
9.752,-0.047258200014680056
9.756,-0.08937441073362629
9.76,-0.09695488628312814
9.764,-0.04509648015209568
9.768,-0.06961988217511982
9.772,-0.06896964955429957
9.776,0.007482708553174535
9.78,0.03059077483834552
9.784,0.04410436640125172
9.788,0.047649674759942355
9.792,0.027381932276809143
9.796,0.05654982046063931
9.8,0.04452500315369662
9.804,0.042190874748266084
9.808,0.04752831346578739
9.812,0.1021747910858011
9.816,0.009793990075174674
9.82,0.07538752210554492
9.824,0.030983532768000893
9.828,0.07279200892444587
9.832,0.06268067764722332
9.836,0.024657608070866706
9.84,0.09802270818445231
9.844,0.09067250840421029
9.848,0.05204150784523523
9.852,0.12533329959395925
9.856,0.14525011748559002
9.86,0.15986206863928049
9.864,0.14511233440692017
9.868,0.14320283996343317
9.872,0.17653361462291703
9.876,0.19174594007843324
9.88,0.19243395511463582
9.884,0.15508768287681907
9.888,0.19038163999196137
9.892,0.19821054404267163
9.896,0.14870415024434247
9.9,0.22020440592236662
9.904,0.2796812269593162
9.908,0.24515593468295666
9.912,0.26716108512640696
9.916,0.24062123403856125
9.92,0.24744717817062523
9.924,0.2716006587537692
9.928,0.24608359463616297
9.932,0.24137232822319532
9.936,0.30038544906549797
9.94,0.31353635967089344
9.944,0.264260555065181
9.948,0.3144358100956454
9.952,0.28362726416935236
9.956,0.29395181195166287
9.96,0.3037004719889864
9.964,0.3229770141279808
9.968,0.29740296692193335
9.972,0.32211313476918857
9.976,0.29018197731979084
9.98,0.3007299413586438
9.984,0.26619965054397743
9.988,0.33427318535830486
9.992,0.27974391128404197
9.996,0.2777182206839247
10.0,0.21884387473810124
10.004,0.2370594263511107
10.008000000000001,0.27874238553954894
10.012,0.2397934925308396
10.016,0.1740656752366163
10.02,0.2446909578165669
10.024000000000001,0.20167151419859186
10.028,0.23896459330575054
10.032,0.18485653724513793
10.036,0.18030223100331846
10.040000000000001,0.20062093041726617
10.044,0.14467113767141473
10.048,0.13041329386414052
10.052,0.13367322658900102
10.056000000000001,0.1476338965591203
10.06,0.09012235416874387
10.064,0.07835487746148828
10.068,0.12967866865928085
10.072000000000001,0.07845006532221446
10.076,0.07333835348971986
10.08,0.034555763847484586
10.084,0.06217572898891663
10.088000000000001,0.06960299519829004
10.092,0.07918129133802818
10.096,0.02801020935712372
10.1,0.08834693325594856
10.104000000000001,0.029784452944437524
10.108,0.022280195522644576
10.112,0.06572863289474996
10.116,0.025734511127965574
10.120000000000001,0.008017617711458508
10.124,0.019628206758826774
10.128,0.05143968088502207
10.132,0.04378936225186847
10.136000000000001,-0.01861706258786064
10.14,0.0035534506509682486
10.144,0.00992048014615125
10.148,-0.021598775826174088
10.152000000000001,-0.007609855863527106
10.156,-0.010293529074712546
10.16,0.02193258823333829
10.164,0.027628906802296693
10.168000000000001,-0.014509248491622828
10.172,-0.020089716169668204
10.176,-0.0016002102742841452
10.18,-0.028308421073671326
10.184000000000001,0.005664405155440592
10.188,-0.014420168230953026
10.192,-0.04442377380008952
10.196,-0.04713259309648843
10.200000000000001,0.017889545035584986
10.204,-0.01721830495128151
10.208,0.024842129827912007
10.212,-0.03669839181943462
10.216000000000001,-0.019357565641146365
10.22,0.038317116299967625
10.224,-0.04276847027501863
10.228,-0.06647448011361336
10.232000000000001,0.005588298019305823
10.236,-0.04990072520658249
10.24,-0.024498350724227094
10.244,-0.033361832913505585
10.248,-0.014611946359961558
10.252,-0.05253726255148626
10.256,-0.03583590772415201
10.26,-0.014745042165058952
10.264,-0.045820476245750606
10.268,-0.0405837814907867
10.272,-0.03905783213801965
10.276,-0.06844483618231129
10.28,-0.037667377518954936
10.284,-0.018401498763999918
10.288,-0.03337359677451268
10.292,-0.03688088512683706
10.296,-0.03221586100871802
10.3,-0.041586924625587426
10.304,-0.0010825849115156279
10.308,0.01684772832867064
10.312,-0.035819244432475666
10.316,-0.011910466080357193
10.32,-0.02148462711666308
10.324,0.0027056343996052544
10.328,0.03441522494952194
10.332,0.0053299802508833104
10.336,-0.04902657930006898
10.34,0.017656278408395266
10.344,0.04845135483615175
10.348,0.015734730580547217
10.352,0.045000459464401815
10.356,0.006464981972490961
10.36,-0.002205402467271883
10.364,0.04921388985775976
10.368,0.003993601919569739
10.372,0.03844580719051053
10.376,0.07706246624973104
10.38,0.004415052630363382
10.384,0.026296329093380928
10.388,0.02954872168021592
10.392,0.044801498758616755
10.396,0.032053810027599806
10.4,0.07787804833421713
10.404,0.06760156715441443
10.408,0.04838388853343202
10.412,0.02650830469862059
10.416,0.024102228396717933
10.42,-0.008142131845473008
10.424,0.033989182675293536
10.428,-0.02381053858060927
10.432,0.01172539659624211
10.436,0.012610529570005705
10.44,-0.011306661090567164
10.444,-0.020012495369643196
10.448,-0.01198951128787046
10.452,-0.10427763912271452
10.456,-0.030551320983158107
10.46,-0.03795742599351751
10.464,-0.032981904170212316
10.468,-0.01815641138999642
10.472,-0.046340616983247346
10.476,-0.07647611257183556
10.48,-0.046882863975256726
10.484,-0.036830840049713875
10.488,-0.0385191988943907
10.492,-0.04492670573787215
10.496,-0.025620280196438895
10.5,-0.073748097958442
10.504,-0.03830579808173363
10.508000000000001,-0.017081666938462317
10.512,-0.10837884112313897
10.516,-0.07486641895207469
10.52,-0.09806008205757936
10.524000000000001,-0.08175612675829269
10.528,-0.060972184145840116
10.532,0.02988637811981666
10.536,0.20225788611305517
10.540000000000001,0.2894709263466149
10.544,0.47504579426269083
10.548,0.6477932176039136
10.552,0.879203768553071
10.556000000000001,0.9545074545146781
10.56,1.0591155953845692
10.564,1.0882449069149776
10.568,1.0446428044110456
10.572000000000001,0.9681820145211715
10.576,0.895737166437806
10.58,0.7015721637766168
10.584,0.460934737557038
10.588000000000001,0.30870074563138256
10.592,0.09762367021646064
10.596,-0.061220505178168225
10.6,-0.0775233788273913
10.604000000000001,-0.11904487262687395
10.608,-0.13990210040374507
10.612,-0.17599048318899801
10.616,-0.14823781236318948
10.620000000000001,-0.09327189504649518
10.624,-0.07247254370794581
10.628,-0.07543684853446429
10.632,-0.09983320191777303
10.636000000000001,-0.04988623394080506
10.64,-0.014261528289171942
10.644,-0.061387631358788886
10.648,-0.014362072934592844
10.652000000000001,-0.026029114076902865
10.656,-0.014608800189659418
10.66,-0.0025084818725309536
10.664,-0.032333228640723216
10.668000000000001,-0.0536307814710795
10.672,-0.029321404141774463
10.676,0.00868561011836664
10.68,-0.016414532044210502
10.684000000000001,-0.009181233616586279
10.688,-0.03385744473006159
10.692,0.054482303981916134
10.696,0.035525402712358586
10.700000000000001,0.04657742765193343
10.704,0.0643041510190184
10.708,0.059741816689647426
10.712,0.039853735440238056
10.716000000000001,0.047654375687812306
10.72,0.05497885590721963
10.724,0.14567090592729656
10.728,0.10012740983766458
10.732000000000001,0.07632666240492597
10.736,0.1062197145823984
10.74,0.08390458109402553
10.744,0.16137994277066658
10.748000000000001,0.11388935278238295
10.752,0.1446066406778247
10.756,0.1650975013873914
10.76,0.1620949444085584
10.764,0.1685796279905516
10.768,0.1720000952474495
10.772,0.1705557373511382
10.776,0.16220209676709157
10.78,0.17740969031769865
10.784,0.23710132778314244
10.788,0.2003672756543827
10.792,0.18087836211966027
10.796,0.18924121514324083
10.8,0.23844538593418138
10.804,0.23586274617527606
10.808,0.23235935623329834
10.812,0.20563141552158531
10.816,0.22420137178951854
10.82,0.19866682361232763
10.824,0.21236450549136843
10.828,0.2385359322745254
10.832,0.2259518540668404
10.836,0.17349224183639367
10.84,0.17778123625490863
10.844,0.2023513879433136
10.848,0.23474227854097884
10.852,0.13020389734004512
10.856,0.17590177268862883
10.86,0.13280432435303244
10.864,0.14919012570207463
10.868,0.14553298770259407
10.872,0.12854907394486456
10.876,0.11476404217880723
10.88,0.1250359334345927
10.884,0.10809236788312246
10.888,0.07357151379847328
10.892,0.11339614874658084
10.896,0.10139387592878457
10.9,0.10029081479597254
10.904,0.037458216945587285
10.908,0.07249573954268582
10.912,0.06629913058844165
10.916,0.013108082787313215
10.92,0.03675889055222326
10.924,0.03155627428103957
10.928,0.07087687201280549
10.932,0.05875132228046409
10.936,-0.03993820527462873
10.94,0.06328773156274278
10.944,-0.022315787092072416
10.948,0.01717947284461774
10.952,0.0045064606520831135
10.956,-0.051839555751135025
10.96,-0.013573777054825095
10.964,-0.027213352261889312
10.968,-0.016844048164311343
10.972,-0.03567036725487175
10.976,-0.017086858787421347
10.98,-0.04249396549114656
10.984,-0.04568588421131812
10.988,-0.018825517353532814
10.992,-0.04108701623383976
10.996,-0.04157142650204311
11.0,-0.07265500294641697
11.004,-0.07815076771971761
11.008000000000001,-0.06989757026073533
11.012,-0.07961935508790872
11.016,-0.047813642213648644
11.02,-0.038415592585473446
11.024000000000001,-0.06191547018201969
11.028,-0.025259628671933626
11.032,-0.03458863445075901
11.036,-0.06551832400485406
11.040000000000001,-0.08698609581165523
11.044,-0.02181723404374914
11.048,-0.06531127297503472
11.052,-0.06803234235914715
11.056000000000001,-0.08215262197220473
11.06,-0.0904523107525374
11.064,-0.09942868371880631
11.068,-0.04924654711074025
11.072000000000001,-0.09185066754496543
11.076,0.0019282595042061368
11.08,-0.09609288413148927
11.084,-0.0947299710378513
11.088000000000001,-0.05275504140778091
11.092,-0.034333175832046044
11.096,-0.07310147511674865
11.1,-0.05463438175246248
11.104000000000001,-0.10920392112163317
11.108,-0.08205143779413329
11.112,-0.09874688682469208
11.116,-0.1211006091562549
11.120000000000001,-0.06460395548913186
11.124,-0.1172426678893773
11.128,-0.09555777048048228
11.132,-0.0818953926185129
11.136000000000001,-0.0900466306485643
11.14,-0.05192627894029759
11.144,-0.0463760257274839
11.148,-0.03129243341652607
11.152000000000001,-0.03883552218875124
11.156,-0.027735373133142838
11.16,-0.04648342827976467
11.164,-0.028480677835128875
11.168000000000001,-0.020269099087230815
11.172,-0.030896527365489625
11.176,-0.04046712332852847
11.18,-0.026757720820057364
11.184000000000001,-0.026623284915020112
11.188,0.008746881551651105
11.192,-0.004789464274865056
11.196,-0.015141904727498967
11.200000000000001,-0.0039002962990733695
11.204,-0.007115335525278186
11.208,0.04932079922510499
11.212,0.022607994680553044
11.216000000000001,-0.0014043123309143146
11.22,0.04658269906040781
11.224,0.017339535594639507
11.228,-0.007905750794190203
11.232000000000001,0.04270707615668246
11.236,-0.002451912088077598
11.24,0.00159455205286518
11.244,0.013019740937052715
11.248000000000001,0.03236286723316197
11.252,-0.00905380859270358
11.256,-0.04811276362780616
11.26,-0.005162038073976879
11.264,-0.03128854659119215
11.268,0.02008564766559453
11.272,-0.03952678628127767
11.276,-0.10238654533891835
11.28,-0.03616515255265787
11.284,0.005475768322281416
11.288,-0.009128198665416906
11.292,-0.012501139658026558
11.296,-0.08817112058792737
11.3,-0.03596368589278867
11.304,-0.07253296613652152
11.308,-0.052153881278963775
11.312,-0.09746103360831672
11.316,-0.08451578140311446
11.32,-0.07998569010135057
11.324,-0.03510271177759777
11.328,-0.03976541227353284
11.332,-0.059940891352344684
11.336,-0.10329855696620721
11.34,-0.07372258844030824
11.344,-0.08432536218558687
11.348,-0.05609701235457
11.352,-0.06785773348967272
11.356,-0.07948260871946658
11.36,-0.10449366622780276
11.364,-0.09647741430260379
11.368,0.024534004715808064
11.372,0.2405340353555841
11.376,0.36734723848772777
11.38,0.5520046403427045
11.384,0.8003589858270226
11.388,0.9502336087359706
11.392,1.037047944447103
11.396,1.101583483917337
11.4,1.1259139002020657
11.404,1.0915313483332574
11.408,1.0149982876705943
11.412,0.8216366459820776
11.416,0.6390174966752831
11.42,0.45669106782722063
11.424,0.21392708948981812
11.428,0.09640653223749998
11.432,-0.06170264696754143
11.436,-0.2005497189331888
11.44,-0.224844781265167
11.444,-0.19782609784636507
11.448,-0.14578415042520587
11.452,-0.13721708553030976
11.456,-0.10993309275391518
11.46,-0.036094176001344444
11.464,-0.09269834809103736
11.468,-0.05117863404180848
11.472,-0.041469705836489526
11.476,-0.06386610889563255
11.48,-0.03466788360221558
11.484,-0.065887076524977
11.488,0.010845017269351744
11.492,-0.04469887511095222
11.496,0.02499558761433064
11.5,-0.01653938274567529
11.504,0.020370197116378014
11.508000000000001,-0.0038029896570457226
11.512,-0.004891428777476714
11.516,-0.015134552845728049
11.52,0.014290961909798663
11.524000000000001,0.03148229799115159
11.528,0.008630005739355219
11.532,0.025305700760745863
11.536,0.01860410018774851
11.540000000000001,0.10500118594845649
11.544,0.059244134734133494
11.548,0.10651311626724215
11.552,0.06478981409073636
11.556000000000001,0.08308087606928155
11.56,0.0585804877468035
11.564,0.09562623429011041
11.568,0.1194983298157359
11.572000000000001,0.15652564565003285
11.576,0.12997151446055527
11.58,0.1744257567376136
11.584,0.17118398380456484
11.588000000000001,0.20316165479392798
11.592,0.16324150403100054
11.596,0.23133082443925446
11.6,0.17386579014889253
11.604000000000001,0.18088558641806018
11.608,0.17551763449630822
11.612,0.26439616621269824
11.616,0.2312804883023896
11.620000000000001,0.21439744293695662
11.624,0.26528069381599373
11.628,0.25397129994342604
11.632,0.2830492915633971
11.636000000000001,0.19642581149411079
11.64,0.23680750370720138
11.644,0.23938702066168652
11.648,0.2004063549938124
11.652000000000001,0.26935106446059515
11.656,0.2332223067227498
11.66,0.26267763263699956
11.664,0.30658030853020823
11.668000000000001,0.23348456289854572
11.672,0.22088748563779423
11.676,0.22763654904072678
11.68,0.24980984456318706
11.684000000000001,0.21078360202480967
11.688,0.20052757492055706
11.692,0.22867420615256645
11.696,0.2020497146615886
11.700000000000001,0.13927182359964463
11.704,0.15720269269479453
11.708,0.214632004264624
11.712,0.1713024127090499
11.716000000000001,0.13105010500159134
11.72,0.1424648955598638
11.724,0.14361724872051515
11.728,0.1503513188172388
11.732000000000001,0.08184822164271677
11.736,0.08359994407077961
11.74,0.10829631505108488
11.744,0.09601097859102646
11.748000000000001,0.10217507791403801
11.752,0.04189551893077556
11.756,0.07147545027879154
11.76,0.08794705198045812
11.764000000000001,0.0712686536918037
11.768,0.05347727974905581
11.772,0.033988381619767034
11.776,0.007140519303883316
11.78,0.026095075337292252
11.784,0.0596428851795983
11.788,0.017913612684800777
11.792,-0.01312553871325917
11.796,-0.009725045155578867
11.8,0.00929788474297134
11.804,-0.003029214017461288
11.808,0.012910777100796038
11.812,0.0037543209622600826
11.816,0.007980685251402372
11.82,0.02458207229867216
11.824,0.017388297826739976
11.828,-0.03500620118392332
11.832,-0.04302588683739031
11.836,-0.02603323237996664
11.84,-0.031037846358566344
11.844,-0.04365591482413989
11.848,-0.029400206089816652
11.852,-0.03810410839524628
11.856,-0.04591025529971553
11.86,-0.031871825815493526
11.864,0.010732720465257212
11.868,-0.01628486379855919
11.872,0.03320794125057461
11.876,-0.026692426208677456
11.88,-0.032617780334268986
11.884,-0.01961112453099252
11.888,-0.015481160959304536
11.892,-0.018016375052484768
11.896,0.02093209488180424
11.9,-0.04628359809821839
11.904,0.002192961469298295
11.908,-0.016079940262619292
11.912,-0.06739110858268185
11.916,-0.01079119845481116
11.92,0.0075913626322972015
11.924,-0.03955288600465554
11.928,-0.020242353275952037
11.932,-0.06990851974780836
11.936,-0.06011332496268664
11.94,0.003588950447303705
11.944,-0.028225309761351035
11.948,-0.04610558335835059
11.952,-0.01932031341517189
11.956,-0.039884813700232884
11.96,-0.032437560136918786
11.964,0.004025356309421989
11.968,-0.045109804024202366
11.972,-0.045094297450354426
11.976,-0.020013675565763146
11.98,0.006995337844447117
11.984,0.020521535984455753
11.988,-0.027914290742888353
11.992,0.00668700405527824
11.996,-0.036618003383761435
12.0,0.0366294342432181
12.004,-0.0289620681106374
12.008000000000001,0.033580746619815124
12.012,-0.019429269143090733
12.016,0.04932743357722325
12.02,0.024211194106762694
12.024000000000001,-0.005022050227852414
12.028,0.010865682817068786
12.032,0.04253295480260569
12.036,0.05359196178387563
12.040000000000001,0.037859773723058765
12.044,0.05314066049518381
12.048,0.075369234412356
12.052,0.05891076543833661
12.056000000000001,0.026862698110212038
12.06,0.049668779744967806
12.064,0.08581810820545017
12.068,0.11139888540612713
12.072000000000001,0.11650999415897315
12.076,0.09440210608724882
12.08,0.08759173210264136
12.084,0.10345316077124347
12.088000000000001,0.0633957738629847
12.092,0.06569340203363609
12.096,0.04239738199225371
12.1,0.03245428165503725
12.104000000000001,0.0721757796103511
12.108,0.060432769231395234
12.112,0.05993324032861796
12.116,0.04824867956985548
12.120000000000001,0.040585358921901765
12.124,0.04866677402428273
12.128,0.026436578647671106
12.132,0.02617933791538615
12.136000000000001,-0.008553415282499439
12.14,0.021003777384696828
12.144,0.03115860165134208
12.148,-0.006989842228162254
12.152000000000001,0.001945131189781781
12.156,-0.018747579988949128
12.16,-0.01186808603062366
12.164,-0.02205374145641273
12.168000000000001,0.03487800351451427
12.172,0.022399959653042457
12.176,0.006794626474363906
12.18,0.04833449792033593
12.184000000000001,0.00012940347667214983
12.188,0.07865544982226248
12.192,-0.010024087098778342
12.196,-0.0015591744290079272
12.200000000000001,-0.016502267036276698
12.204,-0.00021331366461786218
12.208,-0.002698843417468965
12.212,-0.041777441176403717
12.216000000000001,0.012135503900386965
12.22,0.021641863870818304
12.224,0.11510368951005971
12.228,0.21523381215735587
12.232000000000001,0.4068288247247999
12.236,0.5727935033632637
12.24,0.7473106330587158
12.244,0.9118626927744917
12.248000000000001,1.1262109542751602
12.252,1.1296369372240251
12.256,1.124460794952043
12.26,1.1140505437203323
12.264000000000001,1.0413103887301158
12.268,0.909704624144261
12.272,0.7243726997841272
12.276,0.5318448561068797
12.280000000000001,0.3161101798441562
12.284,0.18079251262671656
12.288,0.018311326796099286
12.292,-0.07004844851514065
12.296,-0.12602883233204756
12.3,-0.13904239847611127
12.304,-0.06524723531572346
12.308,-0.0526132347566336
12.312,-0.02515169922411853
12.316,-0.02630737776578154
12.32,0.016846245504234116
12.324,-0.02745699122647971
12.328,0.04502179658888958
12.332,0.026977157788270485
12.336,0.04059952932602332
12.34,0.04396366897693009
12.344,0.019138614644544007
12.348,0.0079194842366197
12.352,0.024475679112158873
12.356,0.05846842918266435
12.36,0.07187113380832598
12.364,0.031029624703414624
12.368,0.04377097131074427
12.372,0.04876835596484107
12.376,0.06170007161716542
12.38,0.048611380210781326
12.384,0.05950043380425536
12.388,0.07936332953188516
12.392,0.10239529112500252
12.396,0.07626154392260062
12.4,0.11662259731525476
12.404,0.16002050999377865
12.408,0.10743870037498182
12.412,0.13661987220271515
12.416,0.17428432079526504
12.42,0.15315567690104426
12.424,0.16435463715159201
12.428,0.215076125796273
12.432,0.18080136651227216
12.436,0.22341239575035493
12.44,0.22170782984983717
12.444,0.2175023102578863
12.448,0.2451285017499655
12.452,0.24315074487832178
12.456,0.26731154040695776
12.46,0.24235296979163007
12.464,0.2710692175106143
12.468,0.27427385131785464
12.472,0.2939788035636523
12.476,0.25583820767231213
12.48,0.31952445806434626
12.484,0.3180492241157267
12.488,0.2775412229865859
12.492,0.3395510568984339
12.496,0.36864310961406543
12.5,0.34886900892290434
12.504,0.3702300968894505
12.508000000000001,0.33922402060364615
12.512,0.2928729692491394
12.516,0.2901167361333233
12.52,0.3518403931465214
12.524000000000001,0.33936950057115506
12.528,0.3314809217679032
12.532,0.3473151080703385
12.536,0.36279056002214466
12.540000000000001,0.3164558632823955
12.544,0.34576838361669293
12.548,0.38979314533976983
12.552,0.31398062191319365
12.556000000000001,0.3548699636609258
12.56,0.3197058351909547
12.564,0.3427345606130978
12.568,0.3445323665823322
12.572000000000001,0.3175022608210351
12.576,0.30732452535975435
12.58,0.2483760328252976
12.584,0.2968406608049048
12.588000000000001,0.23111194644792288
12.592,0.23718259642575537
12.596,0.22021896450556433
12.6,0.216984548860394
12.604000000000001,0.20470131482634848
12.608,0.1592064557671565
12.612,0.12632721570936664
12.616,0.1672512403469523
12.620000000000001,0.14413550416156753
12.624,0.16310448314688158
12.628,0.12109432491227834
12.632,0.07089330860626393
12.636000000000001,0.11967546235986054
12.64,0.08442707436588517
12.644,0.10113209091731536
12.648,0.06808493223452652
12.652000000000001,0.11282105809746767
12.656,0.042690813295116245
12.66,0.05747758663154639
12.664,0.07040439036690532
12.668000000000001,0.03479880497003141
12.672,0.06027601375158574
12.676,0.0872530775638064
12.68,0.037011920584301715
12.684000000000001,0.05963323165565549
12.688,-0.029861761976032748
12.692,0.018383153204795714
12.696,-0.002904617805656131
12.700000000000001,-0.011489537702695585
12.704,0.06579444724809176
12.708,0.09178204374987403
12.712,0.1958283693241868
12.716000000000001,0.3333517113812766
12.72,0.46786295299321085
12.724,0.6660137300882446
12.728,0.8784349822599956
12.732000000000001,0.931585401441564
12.736,1.061008398560322
12.74,1.1234163696624309
12.744,1.1726931711802746
12.748000000000001,1.0779581462641188
12.752,0.9179443617663555
12.756,0.8036822896686038
12.76,0.5779777887073502
12.764000000000001,0.4443959282802899
12.768,0.21520922455424096
12.772,0.1307825759862673
12.776,-0.008187519037721747
12.780000000000001,-0.07751880409388812
12.784,-0.07515449319967946
12.788,-0.06179074448099561
12.792,-0.06897212463754257
12.796000000000001,-0.019588868554899372
12.8,-0.017795715852331282
12.804,0.037992120539967845
12.808,0.04591843944326265
12.812,0.03615538146296641
12.816,0.031026136836672498
12.82,0.05614832048478239
12.824,0.07544315323867709
12.828,0.11432722484310473
12.832,0.0824895049486066
12.836,0.08467210271584888
12.84,0.14689353782996584
12.844,0.09228053912653925
12.848,0.09362500481864561
12.852,0.09668742518834977
12.856,0.05664756980397617
12.86,0.08178290962806178
12.864,0.09157575191816629
12.868,0.12422462407055473
12.872,0.10294805350342731
12.876,0.11523130337684635
12.88,0.15164304749770036
12.884,0.15902495152010251
12.888,0.13879852315893682
12.892,0.12688485326884932
12.896,0.17793159035727682
12.9,0.18291923610220986
12.904,0.13762954150628753
12.908,0.17644515420388265
12.912,0.19015275052320602
12.916,0.21219266003688572
12.92,0.23012572314232607
12.924,0.22914727581557504
12.928,0.2434654937362389
12.932,0.2323149824548599
12.936,0.22055890051689825
12.94,0.2453766915451815
12.944,0.26679571603715535
12.948,0.27188113923239093
12.952,0.22705798617638995
12.956,0.2704772461761782
12.96,0.2958156390441238
12.964,0.301262910534044
12.968,0.30800990813725093
12.972,0.32725572685202964
12.976,0.2936675892575208
12.98,0.293202314469093
12.984,0.3381856896447708
12.988,0.3707309071778034
12.992,0.3932092937006416
12.996,0.37423752931429005
13.0,0.3287768073304048
13.004,0.3695613974319685
13.008000000000001,0.3827088252750939
13.012,0.3755383348405881
13.016,0.38286559181640595
13.02,0.35110215870773664
13.024000000000001,0.37867353158067674
13.028,0.38101004074510253
13.032,0.37802361951770613
13.036,0.32732780603701633
13.040000000000001,0.33523432021559896
13.044,0.27120643655490817
13.048,0.3090335187665685
13.052,0.2912720116637439
13.056000000000001,0.2627227206639995
13.06,0.2834513035328894
13.064,0.26863499240701905
13.068,0.19624731458969644
13.072000000000001,0.2360097414099181
13.076,0.1904493245013191
13.08,0.21715258712372087
13.084,0.16488147071292056
13.088000000000001,0.18237443551375104
13.092,0.1551025472515705
13.096,0.15596598597770397
13.1,0.1463904555638398
13.104000000000001,0.132565874813972
13.108,0.0890909941337048
13.112,0.07498122868617615
13.116,0.08729644033710109
13.120000000000001,0.10020588000879355
13.124,0.08433326575751592
13.128,0.10697785540740062
13.132,0.07183722555245937
13.136000000000001,0.04754921298106386
13.14,0.06594035837707111
13.144,0.08008956749597937
13.148,0.07609343563713707
13.152000000000001,0.10235998433938916
13.156,0.028056908037030415
13.16,0.03606537217713515
13.164,0.03942661324930823
13.168000000000001,0.016911154985693573
13.172,0.008933950097492515
13.176,0.027598775125874817
13.18,0.15199131978635094
13.184000000000001,0.27993237990452224
13.188,0.42868240341932357
13.192,0.6255630283154506
13.196,0.7936410864725502
13.200000000000001,0.9965227161156768
13.204,1.124041376664656
13.208,1.1572899836357302
13.212,1.181340482140887
13.216000000000001,1.0924831833777886
13.22,1.0275307517048715
13.224,0.903668338927791
13.228,0.7294961928809282
13.232000000000001,0.4900508363148455
13.236,0.3463973666670576
13.24,0.12769441684287647
13.244,0.017172829399887242
13.248000000000001,-0.016597752021908125
13.252,-0.039735884388846406
13.256,-0.07887876023759252
13.26,-0.07239963674449686
13.264000000000001,-0.09587906948089214
13.268,-0.06724551851136296
13.272,0.0024787616189786347
13.276,0.0055094507878766415
13.280000000000001,0.004523684197412673
13.284,0.047404978617345085
13.288,0.05173004255240084
13.292,0.06926222195926651
13.296000000000001,0.050144508816201215
13.3,0.08627985617801609
13.304,0.06473282572766449
13.308,0.06296667321468041
13.312000000000001,0.08919604851691547
13.316,0.040061187557887026
13.32,0.14504062835032083
13.324,0.09456537077580748
13.328,0.09767714716365046
13.332,0.09974036721910946
13.336,0.13723063711017916
13.34,0.12204699513814676
13.344,0.07439145810689703
13.348,0.15434467887706513
13.352,0.11093148180075263
13.356,0.1275155423415033
13.36,0.10641628908726668
13.364,0.1653810570713833
13.368,0.14212256317958596
13.372,0.16242399543806438
13.376,0.15937314186709764
13.38,0.2291721689715246
13.384,0.2452612737479982
13.388,0.20368121888006374
13.392,0.20605275396532552
13.396,0.20187376835005605
13.4,0.2534033290018674
13.404,0.23192875636066104
13.408,0.23594320065905036
13.412,0.27216562447450476
13.416,0.24008018919373936
13.42,0.26602737703876567
13.424,0.24056155952019917
13.428,0.3026117825462383
13.432,0.3332366619658763
13.436,0.3069967594544278
13.44,0.33732351128993815
13.444,0.29112330354320737
13.448,0.32149091045753136
13.452,0.29014101940857406
13.456,0.3107435231899542
13.46,0.3460459498076054
13.464,0.33926771616594636
13.468,0.3031425347771475
13.472,0.3020291673907602
13.476,0.3012023440940436
13.48,0.3561395674918031
13.484,0.4028672551403848
13.488,0.3840293710175351
13.492,0.29542550929009503
13.496,0.37498244228468797
13.5,0.3661570517829899
13.504,0.3060752262661966
13.508000000000001,0.3297925566624181
13.512,0.3510972412272335
13.516,0.3272213106212592
13.52,0.27695004941615603
13.524000000000001,0.3198254111131294
13.528,0.23689989552570323
13.532,0.264622302562943
13.536,0.2825111888531718
13.540000000000001,0.2456302336649076
13.544,0.223381621154032
13.548,0.2406891177109959
13.552,0.22056943300752352
13.556000000000001,0.21178948475526652
13.56,0.192016809526223
13.564,0.18885736849382975
13.568,0.16458789171728838
13.572000000000001,0.13322225442479216
13.576,0.11482175966651582
13.58,0.10137503084333867
13.584,0.07256141013001331
13.588000000000001,0.06749272336233404
13.592,0.06875268449152958
13.596,0.07189564062468475
13.6,0.1005282945507027
13.604000000000001,0.06276612981033321
13.608,0.08091777420883173
13.612,0.07051478700879274
13.616,0.030836174895853607
13.620000000000001,0.052951666837532545
13.624,0.03390575142471916
13.628,0.0673947665495351
13.632,0.0396325303330345
13.636000000000001,-0.012799349198927189
13.64,0.01949437338396211
13.644,0.051233551237954894
13.648,-0.010401969109965662
13.652000000000001,-0.011173464449320155
13.656,-0.0029606282663191836
13.66,0.003801626917723549
13.664,0.13156740014442805
13.668000000000001,0.20717205348629616
13.672,0.3756132433980536
13.676,0.5867533776334338
13.68,0.7430367789736603
13.684000000000001,0.8832050353076031
13.688,1.0190232344595822
13.692,1.0739276627800765
13.696,1.0939045786247699
13.700000000000001,1.0775766086212095
13.704,0.954813452221092
13.708,0.8318856182774703
13.712,0.6450958944455764
13.716000000000001,0.42742358420435406
13.72,0.27208974254131557
13.724,0.18485877283390617
13.728,0.03235516470541738
13.732000000000001,-0.09815169391936868
13.736,-0.14771881718588342
13.74,-0.11640996514446746
13.744,-0.05731432006820171
13.748000000000001,-0.08058476246993891
13.752,-0.025240783358434687
13.756,-0.02919836129995647
13.76,-0.003617738460031019
13.764000000000001,-0.03139547376259359
13.768,0.030898489245851486
13.772,-0.0029556119982827415
13.776,0.028383431755464986
13.780000000000001,-0.004904170672114084
13.784,0.028367985071754406
13.788,0.03344602633412742
13.792,0.016845056038680025
13.796000000000001,0.03200927761326963
13.8,0.024625115566448773
13.804,0.02476706200466505
13.808,0.08328227398316372
13.812000000000001,0.06698270012187088
13.816,0.024564711978339118
13.82,0.0688522681125965
13.824,0.04746901038224445
13.828,0.04026321697198246
13.832,0.09502386590493928
13.836,0.03106481706804721
13.84,0.10951530531413162
13.844,0.09298630182219889
13.848,0.09935255281740768
13.852,0.11558578188365223
13.856,0.12565677387386964
13.86,0.10431933497831829
13.864,0.15692084486736224
13.868,0.14804176985949977
13.872,0.11524525174373544
13.876,0.14876371366423882
13.88,0.20181328438967278
13.884,0.22346035117681337
13.888,0.20582725448912653
13.892,0.1595600246699591
13.896,0.20781935088657297
13.9,0.23087477617244556
13.904,0.24171778030580413
13.908,0.2492059055742204
13.912,0.23971747001543445
13.916,0.23467202754257208
13.92,0.23491777900798205
13.924,0.2162203889271152
13.928,0.27768538611937976
13.932,0.27432344175411494
13.936,0.2887258256733455
13.94,0.25402566164729434
13.944,0.3158369768355984
13.948,0.35487582614357543
13.952,0.303690050717483
13.956,0.30240321746675
13.96,0.32072570843244314
13.964,0.37164739401360436
13.968,0.29382153069535405
13.972,0.3166732593427041
13.976,0.28702494635326276
13.98,0.29494663209006194
13.984,0.3072552472543204
13.988,0.33245393195113127
13.992,0.32755694455023115
13.996,0.28084899769459853
14.0,0.2538701032572434
14.004,0.31808130911334276
14.008000000000001,0.22872878345057118
14.012,0.20322370408767484
14.016,0.15563578318448712
14.02,0.22509395651658964
14.024000000000001,0.20459442875499195
14.028,0.22336111262709032
14.032,0.10622341298751192
14.036,0.160869819310166
14.040000000000001,0.11815406932091282
14.044,0.12926181121679947
14.048,0.053509727107555694
14.052,0.11292196656634518
14.056000000000001,0.08306768163480399
14.06,0.058281271815482975
14.064,0.07197983829392024
14.068,0.026137059551186493
14.072000000000001,0.016004371900928835
14.076,0.00961720812975854
14.08,-0.025933814798795703
14.084,0.041657950903608146
14.088000000000001,0.04227200464053557
14.092,-0.017061734437189693
14.096,0.002429510635296243
14.1,-0.011760364783181368
14.104000000000001,0.003309897788945866
14.108,-0.030810059477544227
14.112,-0.0564044320427427
14.116,-0.02553766675432295
14.120000000000001,-0.05972836410390408
14.124,0.0028696623268065907
14.128,-0.010643096629251371
14.132,0.04134270358752049
14.136000000000001,0.22238764765680155
14.14,0.37779626802380406
14.144,0.5684268859418172
14.148,0.7601379763884285
14.152000000000001,0.8723903318942269
14.156,1.0164048596559139
14.16,1.107652476218617
14.164,1.1146340679119706
14.168000000000001,1.104638290073054
14.172,1.043345977568025
14.176,0.8682367209349676
14.18,0.6533342272144721
14.184000000000001,0.4565698036285732
14.188,0.34172906904445843
14.192,0.11990050901156415
14.196,-0.03128127926729628
14.200000000000001,-0.10859350877659497
14.204,-0.18303925963072798
14.208,-0.12729469480671543
14.212,-0.16957454859485738
14.216000000000001,-0.10432644335526803
14.22,-0.10448877560990964
14.224,-0.039962560021645
14.228,-0.052546144007704215
14.232000000000001,-0.031453109433350196
14.236,-0.028289097352578313
14.24,-0.019290567342935806
14.244,-0.01646629507712079
14.248000000000001,-0.029924957874471234
14.252,0.01976101309028062
14.256,-0.049860399673549986
14.26,-0.018027445622231054
14.264000000000001,-0.00841659336317395
14.268,0.0030594025479051806
14.272,-0.020480850047191856
14.276,0.0006113802914260637
14.280000000000001,-0.0007427244121942424
14.284,-0.02496732809937522
14.288,0.018406745764497856
14.292,-0.0102656129620095
14.296000000000001,-0.02179353879257663
14.3,0.03754636647711033
14.304,0.05922275332775716
14.308,0.06553481169584215
14.312000000000001,0.06732070856410056
14.316,0.010756217692271225
14.32,0.03911383145718422
14.324,0.13676550757660566
14.328000000000001,0.06783247997459628
14.332,0.11113747224989123
14.336,0.08551883745738129
14.34,0.119447276115601
14.344,0.1163894891072173
14.348,0.15309030452294867
14.352,0.1443284434989573
14.356,0.13628218132305472
14.36,0.13550121061812306
14.364,0.18246905283833967
14.368,0.15130039113978613
14.372,0.19294837938359893
14.376,0.2530826110262642
14.38,0.23383899849857095
14.384,0.2303120174551421
14.388,0.21419391648099628
14.392,0.16657282350021774
14.396,0.1851764691559322
14.4,0.26100833412915336
14.404,0.21954657575492253
14.408,0.22394326670871229
14.412,0.23422991976855814
14.416,0.21333811275664008
14.42,0.21832207153348154
14.424,0.2565146348622019
14.428,0.23603741445317386
14.432,0.23507147423498523
14.436,0.23373250987253064
14.44,0.27329647613941344
14.444,0.26071912943751696
14.448,0.2596391641114748
14.452,0.27078328761906406
14.456,0.24785564333585508
14.46,0.24667936377370353
14.464,0.2663213486309098
14.468,0.2629267412771742
14.472,0.2279203006914296
14.476,0.22245457176281996
14.48,0.19626595919291864
14.484,0.1884025077693203
14.488,0.2142445965346568
14.492,0.18540724898422803
14.496,0.16905301237497086
14.5,0.1554288353083915
14.504,0.1399910638281399
14.508000000000001,0.13870629508782573
14.512,0.12239222170158551
14.516,0.1047153342436205
14.52,0.07071903645145101
14.524000000000001,0.09985490821377685
14.528,0.05569293420036199
14.532,0.04653977255570928
14.536,0.024271878877118305
14.540000000000001,0.01865426707359777
14.544,-0.009777196109350905
14.548,0.015254817805637158
14.552,0.053897284068237176
14.556000000000001,-0.03592374622852418
14.56,-0.025503875012036006
14.564,-0.038508457755274755
14.568,-0.046920092455783
14.572000000000001,-0.007804360086988753
14.576,-0.06955826686221012
14.58,-0.0625461713826132
14.584,-0.08792043471267856
14.588000000000001,-0.07235209898998154
14.592,-0.10645996733040311
14.596,-0.05487631503508974
14.6,-0.0028768936640601456
14.604000000000001,-0.08836465435883654
14.608,-0.13669172060434154
14.612,-0.08604513516961018
14.616,-0.11346467381784428
14.620000000000001,-0.00445554203790547
14.624,0.059659446842993034
14.628,0.18831618370558043
14.632,0.3603919868726061
14.636000000000001,0.5601324420413792
14.64,0.713429246992723
14.644,0.8627397994580875
14.648,0.9819726352239695
14.652000000000001,1.0129422637151344
14.656,1.0593372645036898
14.66,0.9566076612576156
14.664,0.8859973009535845
14.668000000000001,0.7595430235300932
14.672,0.5589334905554115
14.676,0.3733158378172273
14.68,0.1826823495623496
14.684000000000001,0.06617017527239542
14.688,-0.05746664412318621
14.692,-0.14998735443617608
14.696,-0.1746578922011109
14.700000000000001,-0.17719104058321777
14.704,-0.1852943127248755
14.708,-0.18509228814023904
14.712,-0.12218179811289459
14.716000000000001,-0.09926361612784904
14.72,-0.06356445222908921
14.724,-0.09731961366117789
14.728,-0.09138645975557579
14.732000000000001,-0.059315095816665324
14.736,-0.07106005213626315
14.74,-0.10751144246348343
14.744,-0.042151639109776526
14.748000000000001,-0.09674351430772013
14.752,-0.07759280882765299
14.756,-0.018526083887645997
14.76,0.003155637828739441
14.764000000000001,-0.06266914534232856
14.768,-0.0378636425816497
14.772,-0.03043563662891489
14.776,0.016387062445732396
14.780000000000001,-0.028864921401657403
14.784,-0.01651039012499498
14.788,0.03854760103002559
14.792,-0.00965672769051594
14.796000000000001,0.022852010997811083
14.8,-0.01885184273548229
14.804,0.02736478050675128
14.808,-0.0038969566263891142
14.812000000000001,0.012516689789542495
14.816,0.06626983807873293
14.82,0.05848388757301558
14.824,0.06632575818493663
14.828000000000001,0.06236008173187012
14.832,0.07751127321893606
14.836,0.09738231847894285
14.84,0.1291014761118472
14.844000000000001,0.05349370274689197
14.848,0.10491674535776835
14.852,0.13124782929517467
14.856,0.13104651776980042
14.86,0.15752523808362828
14.864,0.167822410932266
14.868,0.1590775573750962
14.872,0.15397209823010516
14.876,0.16607649569998956
14.88,0.21364593857278602
14.884,0.17910332900985315
14.888,0.20019132582117122
14.892,0.20559745669154625
14.896,0.24390916972951607
14.9,0.2089051688429021
14.904,0.25159927962831513
14.908,0.2614074305506786
14.912,0.22669170317425227
14.916,0.2250444542944653
14.92,0.2313575721784582
14.924,0.24168537028343248
14.928,0.26912952229401327
14.932,0.24730118231951764
14.936,0.24482471955640778
14.94,0.21477527138279265
14.944,0.22123648739255208
14.948,0.2921216232064875
14.952,0.22077162801536504
14.956,0.1958553932755624
14.96,0.24740148269939793
14.964,0.21367429719334285
14.968,0.2069500681723113
14.972,0.16896496061558147
14.976,0.14837656898240378
14.98,0.14327602767247805
14.984,0.10371244035030207
14.988,0.11878675029139824
14.992,0.10626124642096821
14.996,0.1281174462094661
15.0,0.07530862051452039
15.004,0.006673703293598891
15.008000000000001,0.0473421991488812
15.012,0.09873113944059307
15.016,0.038141398215023034
15.02,-0.008827848468304627
15.024000000000001,0.02202263276949949
15.028,-0.02257011799492819
15.032,-0.05321507175798609
15.036,-0.037809145274191915
15.040000000000001,-0.027957691596393202
15.044,-0.0775480029996518
15.048,-0.06725864615618168
15.052,-0.050375304286800204
15.056000000000001,-0.06754674935461433
15.06,-0.045800950072806115
15.064,-0.08392965997841514
15.068,-0.04125750912716254
15.072000000000001,-0.09950218624516516
15.076,-0.0364097020575449
15.08,-0.12340595562754825
15.084,-0.11485532009212865
15.088000000000001,-0.09271810876917475
15.092,-0.07296514732318397
15.096,-0.08898899261140455
15.1,-0.018319095252117543
15.104000000000001,0.07783152446155314
15.108,0.1935698202789926
15.112,0.3695288488296173
15.116,0.5269979132531777
15.120000000000001,0.7000751609826058
15.124,0.8928691092257817
15.128,0.9594418040537425
15.132,1.0448722256093417
15.136000000000001,1.000070526919308
15.14,0.9835156319800847
15.144,0.8529729300225054
15.148,0.7395443824329396
15.152000000000001,0.5219421049851493
15.156,0.35360285179198464
15.16,0.13384194473485114
15.164,0.012900085330974212
15.168000000000001,-0.12353396422676606
15.172,-0.1831211756921525
15.176,-0.2104058373784248
15.18,-0.21616921669931954
15.184000000000001,-0.20461023075061685
15.188,-0.18605344497646617
15.192,-0.19064359583796983
15.196,-0.13942250380829743
15.200000000000001,-0.07588607385688373
15.204,-0.11507658222086548
15.208,-0.10434165497709935
15.212,-0.02745446937769165
15.216000000000001,-0.08646486394058633
15.22,-0.053384748148213215
15.224,-0.03624222191930901
15.228,-0.034346917627023785
15.232000000000001,-0.09219365185976766
15.236,-0.05796268043831685
15.24,-0.08248252296032921
15.244,0.02962741411553098
15.248000000000001,-0.06844632333660486
15.252,-0.056336586812259254
15.256,-0.05249328844807054
15.26,-0.05199160465597735
15.264000000000001,0.031494966932421736
15.268,0.06295641511925959
15.272,-0.009321078561736456
15.276,-0.025064006589563807
15.280000000000001,-0.034411238937819597
15.284,0.029258810892809444
15.288,0.03367538035946113
15.292,0.02688191891541276
15.296000000000001,0.05535070508016685
15.3,0.0743966411168047
15.304,0.08742032752950675
15.308,0.07846487006373647
15.312000000000001,0.06102166602945153
15.316,0.11227735344629602
15.32,0.11085952049683233
15.324,0.14759084079541634
15.328000000000001,0.1519661070438645
15.332,0.0984786171225353
15.336,0.10467107287413753
15.34,0.13582724920911438
15.344000000000001,0.14228118806885498
15.348,0.19342807625769298
15.352,0.18408324617038135
15.356,0.20817645246848465
15.36,0.20366316597053088
15.364,0.21179638136097445
15.368,0.2412917592758741
15.372,0.2226550549777976
15.376,0.21685348130486173
15.38,0.26400828030415757
15.384,0.24139507384787864
15.388,0.23414426280205264
15.392,0.21868655967919842
15.396,0.2593681880308758
15.4,0.28204624920752885
15.404,0.25832452055030203
15.408,0.291866045871786
15.412,0.20347349402137707
15.416,0.24848221548429725
15.42,0.25249552232996536
15.424,0.23746234559153231
15.428,0.30794375049881856
15.432,0.2329733688785757
15.436,0.21406734454360604
15.44,0.22098434884620977
15.444,0.1650181501257056
15.448,0.18179860690312788
15.452,0.20524167792236278
15.456,0.1489241698244964
15.46,0.13527544818780907
15.464,0.17979255433412167
15.468,0.16366349177459596
15.472,0.12145074123816059
15.476,0.08071625697426985
15.48,0.07804511306997547
15.484,0.05647671329791247
15.488,0.03708047939161563
15.492,0.017106991866644713
15.496,0.014716637598390429
15.5,-4.1785029295769716e-05
15.504,-0.016794523054576682
15.508000000000001,0.01715849808442564
15.512,0.002793291089301821
15.516,0.03028671200611082
15.52,-0.029555082434545
15.524000000000001,-0.005443699729378394
15.528,-0.012344668783079693
15.532,-0.03816610851555127
15.536,-0.01949097699273333
15.540000000000001,-0.016641382618581127
15.544,-0.02540365837655184
15.548,-0.045459487108580734
15.552,-0.05932378171256139
15.556000000000001,-0.09355688734684976
15.56,-0.08451458713779776
15.564,-0.08771299876135431
15.568,-0.11214404314659913
15.572000000000001,-0.07303556071793715
15.576,-0.01692967329628341
15.58,0.018499732871915305
15.584,0.17920497856495715
15.588000000000001,0.301369954974138
15.592,0.48545498335156356
15.596,0.645190996650789
15.6,0.8378182869311059
15.604000000000001,0.9347578695922206
15.608,1.05363123719825
15.612,1.0394485872277068
15.616,0.9923908820966904
15.620000000000001,0.8915286506856833
15.624,0.7961340428147586
15.628,0.6389777549615518
15.632,0.4314335387381491
15.636000000000001,0.2985203770355269
15.64,0.1261044176057266
15.644,-0.03519699244728313
15.648,-0.12088124088988389
15.652000000000001,-0.15202043948653496
15.656,-0.19794023849372042
15.66,-0.13066281685769732
15.664,-0.12187724438913372
15.668000000000001,-0.10061605017044269
15.672,-0.07361293343918728
15.676,-0.03181057102244597
15.68,-0.052113721547982196
15.684000000000001,-0.04488782550433906
15.688,-0.0006379358032914395
15.692,-0.016847404105009994
15.696,-0.0475373036975516
15.700000000000001,-0.030144743336457242
15.704,-0.016059138569553127
15.708,-0.010233770564915362
15.712,-0.05612408211925862
15.716000000000001,-0.05851926202146187
15.72,-0.031679874148019795
15.724,-0.02281721979371926
15.728,-0.011542699316321202
15.732000000000001,0.01914402324299367
15.736,0.0029971979705051286
15.74,0.02430607349831944
15.744,0.0013055528034112418
15.748000000000001,0.025336369522085976
15.752,0.05197136719406614
15.756,0.05775713692245208
15.76,0.038536916771821736
15.764000000000001,0.0747272230844539
15.768,0.13204623062074777
15.772,0.07836291836210449
15.776,0.06825564294297336
15.780000000000001,0.09605684302859607
15.784,0.1176328965185523
15.788,0.118666934832379
15.792,0.12394656429868162
15.796000000000001,0.09580836457017076
15.8,0.12285285036601276
15.804,0.15815475820829364
15.808,0.16476130953012577
15.812000000000001,0.1567716909734361
15.816,0.17329724461999027
15.82,0.19381117449073298
15.824,0.22896247395110347
15.828000000000001,0.2106809167513337
15.832,0.22457987073466462
15.836,0.20725879073423006
15.84,0.24906144002288022
15.844000000000001,0.2579779086009543
15.848,0.27601002310648126
15.852,0.2729059916201553
15.856,0.2751038373321892
15.860000000000001,0.27078061545585314
15.864,0.2917671337450604
15.868,0.31616620136421303
15.872,0.2716078275566689
15.876,0.27451251927440934
15.88,0.3038961498306092
15.884,0.3176507398732007
15.888,0.2853023909849225
15.892,0.2962766776571139
15.896,0.29128346652351844
15.9,0.23993245332045987
15.904,0.28979263174852143
15.908,0.2817475278462764
15.912,0.26559230329901873
15.916,0.2923122201560966
15.92,0.2204113106202009
15.924,0.22297805773028434
15.928,0.16231500297153828
15.932,0.19411822316027713
15.936,0.1792611150544493
15.94,0.16715597823414116
15.944,0.1984304691930949
15.948,0.17548091981149594
15.952,0.13471542953014443
15.956,0.10776959251172587
15.96,0.1355349809210168
15.964,0.10299757189659749
15.968,0.06956876062964625
15.972,0.02960480553699759
15.976,0.049657714673226896
15.98,0.07642034032708397
15.984,0.11209500838656011
15.988,0.04718407091173604
15.992,0.012772486907664356
15.996,-0.005954548170507244
16.0,0.03770100186190865
16.004,-0.019432524329440114
16.008,0.03185891194325916
16.012,0.027574525364829634
16.016000000000002,0.012304652717920236
16.02,-0.0020099862884842283
16.024,0.01858216398155671
16.028,-0.0009942221484191532
16.032,-0.04356886554360946
16.036,0.0053212521178291755
16.04,-0.05410346417008669
16.044,-0.01149999270133241
16.048000000000002,-0.04933250387342967
16.052,0.12679530972528774
16.056,0.2661694749656412
16.06,0.40655495578529477
16.064,0.6121903108720983
16.068,0.7944988294184624
16.072,0.9229641222057272
16.076,1.0816269978269886
16.080000000000002,1.1360522828146289
16.084,1.1702726088463522
16.088,1.1712454297052126
16.092,1.0593012862340778
16.096,0.8636111756732882
16.1,0.6831602891468416
16.104,0.49146918453148775
16.108,0.33046635600188723
16.112000000000002,0.11120266176221023
16.116,0.011481999888832858
16.12,-0.06091579426363551
16.124,-0.12158629129185448
16.128,-0.10692999410921492
16.132,-0.13369873367732363
16.136,-0.10828760128936961
16.14,-0.09357497985998982
16.144000000000002,-0.013088662281040074
16.148,-0.04060593159536714
16.152,-0.006176740091177106
16.156,-0.009738271434545242
16.16,-0.02230874767474006
16.164,-0.0008348633370415352
16.168,0.05076647688894235
16.172,0.017995179524850607
16.176000000000002,-0.010535722605303808
16.18,0.032190920754455274
16.184,0.031070950550925815
16.188,0.1236867227397423
16.192,0.042550074893650855
16.196,0.029225807091291738
16.2,0.08581405498944869
16.204,0.01623026452823198
16.208000000000002,0.06904332446979038
16.212,0.11647194339370054
16.216,0.06887131249813187
16.22,0.041851262351345384
16.224,0.08903698182787424
16.228,0.14148978825906763
16.232,0.11615226455655196
16.236,0.0925567164804313
16.240000000000002,0.11131093721198473
16.244,0.12957967645937782
16.248,0.16002448223561763
16.252,0.18713412800336282
16.256,0.18763888606945447
16.26,0.1883056673946094
16.264,0.15918219525481322
16.268,0.1668949845997485
16.272000000000002,0.21605491064926727
16.276,0.17642117898087914
16.28,0.21941651732116751
16.284,0.24738406709509622
16.288,0.2178589807175958
16.292,0.22197475247408716
16.296,0.25098636099651056
16.3,0.27914792788885556
16.304000000000002,0.30586500872918365
16.308,0.2989298309513291
16.312,0.2846880004542176
16.316,0.2677065567340866
16.32,0.27055326255314327
16.324,0.2951045507799294
16.328,0.3204019452081814
16.332,0.3156124101683096
16.336000000000002,0.2562810168290526
16.34,0.29828681940565616
16.344,0.3568806091923668
16.348,0.32938174404968545
16.352,0.28738859050546306
16.356,0.3815999331633186
16.36,0.329291492597523
16.364,0.3463769498120721
16.368000000000002,0.344958175190425
16.372,0.31831960042208785
16.376,0.30581676849126366
16.38,0.38038745562459736
16.384,0.3546064208001884
16.388,0.34311502047828163
16.392,0.3238188872049128
16.396,0.2746948779231633
16.4,0.32862519079800323
16.404,0.27122804687979907
16.408,0.28592900357380124
16.412,0.21847283440628704
16.416,0.19303648164242854
16.42,0.24381601097688693
16.424,0.2069625962804103
16.428,0.1606603773130288
16.432,0.20220547692527135
16.436,0.22505059267830615
16.44,0.19840470844753733
16.444,0.14938563417770515
16.448,0.14097522034912707
16.452,0.14377789425255902
16.456,0.1361817446066833
16.46,0.09484656905391521
16.464,0.10048473878340256
16.468,0.09633274358890961
16.472,0.08782561754991333
16.476,0.06149151313298727
16.48,0.061293723035496024
16.484,0.09896274263529278
16.488,0.08762412542312792
16.492,0.05794346332604708
16.496,0.08300757923447338
16.5,0.03276159263785529
16.504,0.08584284500179269
16.508,0.05418789200726817
16.512,0.11308724220451588
16.516000000000002,-0.0033077001196369776
16.52,0.010758983446725594
16.524,0.036653799391720074
16.528,0.022319508177118804
16.532,0.04129611572383711
16.536,-0.031020120483414838
16.54,0.03243141996945553
16.544,0.10102992527669222
16.548000000000002,0.18910486636997956
16.552,0.2827866891765861
16.556,0.5089587246828083
16.56,0.6886244156678129
16.564,0.8494323778384787
16.568,0.9852291188483606
16.572,1.0892537088581138
16.576,1.1401888995676257
16.580000000000002,1.1663926561595206
16.584,1.0990146375539434
16.588,0.9618672636016513
16.592,0.7936988060094545
16.596,0.6166133239063504
16.6,0.4574695221870432
16.604,0.2797818387463276
16.608,0.1343240745868554
16.612000000000002,0.023246922078568148
16.616,-0.07663339351520074
16.62,-0.04977862916942859
16.624,-0.08881238938486162
16.628,-0.07777284856747767
16.632,-0.0363177872753404
16.636,-0.0705053047964973
16.64,-0.016810579812534154
16.644000000000002,0.04944393871783247
16.648,-0.00951319149041114
16.652,0.06228005965033889
16.656,0.07512210600248335
16.66,0.03781538368355696
16.664,0.0635928511679887
16.668,0.08557856581208083
16.672,0.04251250762426631
16.676000000000002,0.07758013071296706
16.68,0.048991380578499874
16.684,0.06403262082519229
16.688,0.058637814264717786
16.692,0.08530320285591425
16.696,0.10902296098226298
16.7,0.08704404678598289
16.704,0.0717897146992813
16.708000000000002,0.08088971414158799
16.712,0.11767742207624572
16.716,0.1589771354930238
16.72,0.1359848718409304
16.724,0.13003961602536512
16.728,0.16483281498599264
16.732,0.14104025302608725
16.736,0.14402248660638636
16.740000000000002,0.1440525482252633
16.744,0.21792093079648403
16.748,0.12616247842370448
16.752,0.21173138909951245
16.756,0.18724875962633425
16.76,0.20352658052676043
16.764,0.2709932396072869
16.768,0.2177637314329144
16.772000000000002,0.2205529746866238
16.776,0.24095248996093985
16.78,0.2689194686629827
16.784,0.26168205452173476
16.788,0.2394285675366039
16.792,0.2580723296920996
16.796,0.3173241322695336
16.8,0.3003850472836378
16.804000000000002,0.32278406209709803
16.808,0.30984723599605907
16.812,0.2996697417092156
16.816,0.36251261765092846
16.82,0.3279244553434764
16.824,0.3333265651491503
16.828,0.3753905340185678
16.832,0.32824616285227126
16.836000000000002,0.3341591965395474
16.84,0.3593158029419671
16.844,0.3683982777776368
16.848,0.3754887709899775
16.852,0.41603771695428415
16.856,0.3706406472216538
16.86,0.307885758494453
16.864,0.3792041223964422
16.868000000000002,0.36632927624565076
16.872,0.35438216436766073
16.876,0.3506644641928089
16.88,0.3413625899371603
16.884,0.33685757673978267
16.888,0.34035207896708514
16.892,0.29225527549742986
16.896,0.2667618573095968
16.9,0.357786978147219
16.904,0.2554689445618745
16.908,0.25882352253688395
16.912,0.19690424261273698
16.916,0.22016493257950584
16.92,0.18506484894699574
16.924,0.1889384120466131
16.928,0.21044120560791796
16.932,0.17625227624725498
16.936,0.1644406245242726
16.94,0.10042302105172349
16.944,0.1859225416252729
16.948,0.09843286826228077
16.952,0.1505959957921552
16.956,0.12770746322378257
16.96,0.11499256366127483
16.964,0.07824445913232021
16.968,0.09520313920163932
16.972,0.067135201090518
16.976,0.07253824896870358
16.98,0.06686162645422213
16.984,0.02391467248156321
16.988,0.09719207828793594
16.992,0.05657110170594661
16.996,0.040022742650895615
17.0,0.03727753618748883
17.004,0.05556232655126202
17.008,0.008372326083569016
17.012,-0.044123872957668654
17.016000000000002,0.023329215393520904
17.02,0.06513242976111362
17.024,0.1284816296774402
17.028,0.2223467229538594
17.032,0.4006721359129934
17.036,0.5327140436862746
17.04,0.7237148282623346
17.044,0.8960248228834822
17.048000000000002,1.0639888035516376
17.052,1.1141088120439109
17.056,1.1433995385009026
17.06,1.1833622971145414
17.064,1.065028628135985
17.068,0.9287769925701654
17.072,0.734925355659386
